   5.3000000e-01   6.0000000e+00   8.0000000e+00   1.0000000e+01   1.0310000e+04  -6.0000000e+00
   9.3000000e-01   5.0000000e+00   5.0000000e+00   8.0000000e+00   8.8200000e+03  -5.0000000e+00
   1.1700000e+00   5.0000000e+00   5.0000000e+00   5.0000000e+00   5.3700000e+03  -5.0000000e+00
   1.5500000e+00   5.0000000e+00   1.0000000e+00   0.0000000e+00   3.2900000e+03  -5.0000000e+00
   1.7700000e+00   8.0000000e+00   1.0000000e+00   0.0000000e+00   3.0800000e+03  -8.0000000e+00
   2.1700000e+00   1.0000000e+01   1.0000000e+00   0.0000000e+00   3.1000000e+03  -1.0000000e+01
   2.3980000e+00   8.0000000e+00   2.0000000e+00   0.0000000e+00   2.9300000e+03  -8.0000000e+00
   2.4100000e+00   7.0000000e+00   4.0000000e+00   0.0000000e+00   3.0800000e+03  -7.0000000e+00
   2.4780000e+00   7.0000000e+00   4.0000000e+00   1.0000000e+00   3.3200000e+03  -7.0000000e+00
   2.7180000e+00   8.0000000e+00   2.0000000e+00   0.0000000e+00   3.0600000e+03  -8.0000000e+00
   2.9310000e+00   1.0000000e+00   2.0000000e+00   8.0000000e+00   8.2400000e+03  -1.0000000e+00
   2.9510000e+00   2.0000000e+00   3.0000000e+00   5.0000000e+00   5.5100000e+03  -2.0000000e+00
   3.0460000e+00   4.0000000e+00   3.0000000e+00   7.0000000e+00   6.8100000e+03  -4.0000000e+00
   3.2860000e+00   1.0000000e+00   8.0000000e+00   8.0000000e+00   7.5600000e+03  -1.0000000e+00
   3.6860000e+00   1.0000000e+00   5.0000000e+00   7.0000000e+00   6.8300000e+03  -1.0000000e+00
   3.9210000e+00   1.0000000e+00   3.0000000e+00   7.0000000e+00   6.7400000e+03  -1.0000000e+00
   4.1710000e+00   5.0000000e+00   6.0000000e+00   7.0000000e+00   6.9600000e+03  -5.0000000e+00
   4.3140000e+00   4.0000000e+00   8.0000000e+00   1.0000000e+01   1.0290000e+04  -4.0000000e+00
   4.5680000e+00   4.0000000e+00   6.0000000e+00   8.0000000e+00   8.4300000e+03  -4.0000000e+00
   4.8080000e+00   4.0000000e+00   4.0000000e+00   8.0000000e+00   7.9100000e+03  -4.0000000e+00
   5.2080000e+00   1.0000000e+00   2.0000000e+00   7.0000000e+00   6.9100000e+03  -1.0000000e+00
   5.4440000e+00   1.0000000e+00   5.0000000e+00   1.1000000e+01   1.1040000e+04  -1.0000000e+00
   5.8440000e+00   2.0000000e+00   7.0000000e+00   1.1000000e+01   1.0840000e+04  -2.0000000e+00
   6.0840000e+00   1.0000000e+00   5.0000000e+00   1.0000000e+01   1.0450000e+04  -1.0000000e+00
   6.3590000e+00   5.0000000e+00   5.0000000e+00   9.0000000e+00   9.0300000e+03  -5.0000000e+00
   6.5990000e+00   4.0000000e+00   5.0000000e+00   9.0000000e+00   9.1500000e+03  -4.0000000e+00
   6.9990000e+00   3.0000000e+00   4.0000000e+00   1.0000000e+01   1.0020000e+04  -3.0000000e+00
   7.2390000e+00   3.0000000e+00   5.0000000e+00   1.0000000e+01   9.5800000e+03  -3.0000000e+00
   7.6290000e+00   3.0000000e+00   5.0000000e+00   9.0000000e+00   9.3700000e+03  -3.0000000e+00
   7.8520000e+00   0.0000000e+00   7.0000000e+00   9.0000000e+00   8.7700000e+03   0.0000000e+00
   8.2520000e+00   2.0000000e+00   4.0000000e+00   8.0000000e+00   7.9600000e+03  -2.0000000e+00
   8.4720000e+00   2.0000000e+00   3.0000000e+00   1.0000000e+01   9.5000000e+03  -2.0000000e+00
   8.8720000e+00   4.0000000e+00   4.0000000e+00   1.0000000e+01   1.0200000e+04  -4.0000000e+00
   9.1120000e+00   4.0000000e+00   4.0000000e+00   9.0000000e+00   9.2500000e+03  -4.0000000e+00
   9.7400000e+00   3.0000000e+00   5.0000000e+00   9.0000000e+00   9.0900000e+03  -3.0000000e+00
   1.0140000e+01   3.0000000e+00   5.0000000e+00   9.0000000e+00   9.4100000e+03  -3.0000000e+00
   1.0405000e+01   4.0000000e+00   1.0000000e+01   6.0000000e+00   6.0700000e+03  -4.0000000e+00
   1.0795000e+01   5.0000000e+00   7.0000000e+00   8.0000000e+00   8.7100000e+03  -5.0000000e+00
   1.1035000e+01   6.0000000e+00   1.0000000e+01   8.0000000e+00   7.8700000e+03  -6.0000000e+00
   1.1425000e+01   6.0000000e+00   8.0000000e+00   1.0000000e+01   1.0380000e+04  -6.0000000e+00
   1.1665000e+01   2.0000000e+00   5.0000000e+00   1.0000000e+01   9.7400000e+03  -2.0000000e+00
   1.2065000e+01   4.0000000e+00   4.0000000e+00   1.2000000e+01   1.2250000e+04  -4.0000000e+00
   1.2697000e+01   3.0000000e+00   4.0000000e+00   8.0000000e+00   8.7900000e+03  -3.0000000e+00
   1.2937000e+01   2.0000000e+00   4.0000000e+00   8.0000000e+00   8.3600000e+03  -2.0000000e+00
   1.3337000e+01   5.0000000e+00   6.0000000e+00   1.2000000e+01   1.2470000e+04  -5.0000000e+00
   1.3577000e+01   3.0000000e+00   3.0000000e+00   1.1000000e+01   1.1540000e+04  -3.0000000e+00
   1.3977000e+01   4.0000000e+00   4.0000000e+00   1.1000000e+01   1.1240000e+04  -4.0000000e+00
   1.4613000e+01   6.0000000e+00   8.0000000e+00   1.2000000e+01   1.1750000e+04  -6.0000000e+00
   1.7931000e+01   2.0000000e+00   4.0000000e+00   1.0000000e+01   9.6400000e+03  -2.0000000e+00
   1.8140000e+01   4.0000000e+00   5.0000000e+00   1.0000000e+01   1.0430000e+04  -4.0000000e+00
   1.8220000e+01   4.0000000e+00   6.0000000e+00   1.1000000e+01   1.1300000e+04  -4.0000000e+00
   1.8331000e+01   1.0000000e+00   5.0000000e+00   1.0000000e+01   9.8700000e+03  -1.0000000e+00
   1.8571000e+01   3.0000000e+00   6.0000000e+00   8.0000000e+00   8.1700000e+03  -3.0000000e+00
   1.8971000e+01   6.0000000e+00   7.0000000e+00   9.0000000e+00   9.0400000e+03  -6.0000000e+00
   1.9208000e+01   7.0000000e+00   6.0000000e+00   1.0000000e+01   9.8300000e+03  -7.0000000e+00
   1.9608000e+01   3.0000000e+00   4.0000000e+00   9.0000000e+00   8.6600000e+03  -3.0000000e+00
   1.9848000e+01   6.0000000e+00   3.0000000e+00   1.0000000e+01   9.6300000e+03  -6.0000000e+00
   2.0248000e+01   7.0000000e+00   5.0000000e+00   7.0000000e+00   6.8000000e+03  -7.0000000e+00
   2.0488000e+01   4.0000000e+00   3.0000000e+00   7.0000000e+00   6.9200000e+03  -4.0000000e+00
   2.1241000e+01   2.0000000e+00   4.0000000e+00   6.0000000e+00   6.8100000e+03  -2.0000000e+00
   2.1561000e+01   1.0000000e+00   4.0000000e+00   5.0000000e+00   5.1300000e+03  -1.0000000e+00
   2.1801000e+01   1.0000000e+00   3.0000000e+00   5.0000000e+00   5.4500000e+03  -1.0000000e+00
   2.2201000e+01   3.0000000e+00   6.0000000e+00   7.0000000e+00   6.8000000e+03  -3.0000000e+00
   2.2848000e+01   2.0000000e+00   4.0000000e+00   7.0000000e+00   7.2800000e+03  -2.0000000e+00
   2.3088000e+01   7.0000000e+00   8.0000000e+00   4.0000000e+00   4.3000000e+03  -7.0000000e+00
   2.3488000e+01   5.0000000e+00   5.0000000e+00   4.0000000e+00   4.2500000e+03  -5.0000000e+00
   2.3833000e+01   2.0000000e+00   8.0000000e+00   6.0000000e+00   5.6100000e+03  -2.0000000e+00
   2.4233000e+01   4.0000000e+00   6.0000000e+00   6.0000000e+00   6.3800000e+03  -4.0000000e+00
   2.4473000e+01   4.0000000e+00   7.0000000e+00   6.0000000e+00   7.3400000e+03  -4.0000000e+00
   2.4873000e+01   2.0000000e+00   7.0000000e+00   9.0000000e+00   8.8800000e+03  -2.0000000e+00
   2.5113000e+01   1.0000000e+00   9.0000000e+00   9.0000000e+00   9.2700000e+03  -1.0000000e+00
   2.5518000e+01   3.0000000e+00   6.0000000e+00   9.0000000e+00   8.6900000e+03  -3.0000000e+00
   2.5758000e+01   5.0000000e+00   5.0000000e+00   1.0000000e+01   1.0490000e+04  -5.0000000e+00
   2.6156000e+01   5.0000000e+00   7.0000000e+00   1.1000000e+01   1.1330000e+04  -5.0000000e+00
   2.6396000e+01   5.0000000e+00   6.0000000e+00   1.2000000e+01   1.1570000e+04  -5.0000000e+00
   2.6886000e+01   8.0000000e+00   5.0000000e+00   7.0000000e+00   7.0100000e+03  -8.0000000e+00
   2.7126000e+01   5.0000000e+00   7.0000000e+00   8.0000000e+00   7.9800000e+03  -5.0000000e+00
   2.7526000e+01   4.0000000e+00   5.0000000e+00   7.0000000e+00   7.0600000e+03  -4.0000000e+00
   2.7766000e+01   2.0000000e+00   3.0000000e+00   6.0000000e+00   6.3000000e+03  -2.0000000e+00
   2.8159000e+01   2.0000000e+00   5.0000000e+00   8.0000000e+00   7.5000000e+03  -2.0000000e+00
   2.8399000e+01   2.0000000e+00   4.0000000e+00   6.0000000e+00   6.2300000e+03  -2.0000000e+00
   2.8799000e+01   3.0000000e+00   3.0000000e+00   6.0000000e+00   6.1000000e+03  -3.0000000e+00
   2.9039000e+01   1.0000000e+00   5.0000000e+00   7.0000000e+00   6.7800000e+03  -1.0000000e+00
   2.9398000e+01   2.0000000e+00   3.0000000e+00   6.0000000e+00   6.9760000e+03  -2.0000000e+00
   2.9796000e+01   5.0000000e+00   4.0000000e+00   8.0000000e+00   8.4900000e+03  -5.0000000e+00
   3.0163000e+01   1.0000000e+01   8.0000000e+00   3.0000000e+00   3.5100000e+03  -1.0000000e+01
   3.0403000e+01   9.0000000e+00   8.0000000e+00   0.0000000e+00   3.3000000e+03  -9.0000000e+00
   3.0803000e+01   9.0000000e+00   1.0000000e+01   0.0000000e+00   3.0000000e+03  -9.0000000e+00
   3.1043000e+01   1.0000000e+01   7.0000000e+00   0.0000000e+00   3.0000000e+03  -1.0000000e+01
   3.1443000e+01   1.0000000e+01   9.0000000e+00   0.0000000e+00   3.3600000e+03  -1.0000000e+01
   3.1693000e+01   5.0000000e+00   5.0000000e+00   0.0000000e+00   2.6900000e+03  -5.0000000e+00
   3.2093000e+01   9.0000000e+00   1.0000000e+00   0.0000000e+00   3.4200000e+03  -9.0000000e+00
   3.2333000e+01   5.0000000e+00   2.0000000e+00   9.0000000e+00   9.0600000e+03  -5.0000000e+00
   3.2729000e+01   4.0000000e+00   8.0000000e+00   8.0000000e+00   8.1800000e+03  -4.0000000e+00
   3.3814000e+01   6.0000000e+00   6.0000000e+00   7.0000000e+00   6.9500000e+03  -6.0000000e+00
   3.4054000e+01   4.0000000e+00   7.0000000e+00   6.0000000e+00   6.1800000e+03  -4.0000000e+00
   3.4454000e+01   5.0000000e+00   7.0000000e+00   8.0000000e+00   7.6100000e+03  -5.0000000e+00
   3.4694000e+01   4.0000000e+00   6.0000000e+00   8.0000000e+00   7.6900000e+03  -4.0000000e+00
   3.5066000e+01   5.0000000e+00   1.0000000e+01   9.0000000e+00   9.0200000e+03  -5.0000000e+00
   3.5306000e+01   6.0000000e+00   6.0000000e+00   8.0000000e+00   8.0000000e+03  -6.0000000e+00
   3.5706000e+01   7.0000000e+00   6.0000000e+00   8.0000000e+00   7.7800000e+03  -7.0000000e+00
   3.5927000e+01   7.0000000e+00   7.0000000e+00   8.0000000e+00   7.9900000e+03  -7.0000000e+00
   3.6327000e+01   5.0000000e+00   5.0000000e+00   1.0000000e+01   1.0490000e+03  -5.0000000e+00
   3.6567000e+01   8.0000000e+00   4.0000000e+00   1.1000000e+01   1.1330000e+04  -8.0000000e+00
   3.6904000e+01   2.0000000e+00   3.0000000e+00   1.4000000e+01   1.4130000e+04  -2.0000000e+00
   3.7434000e+01   6.0000000e+00   5.0000000e+00   1.4000000e+01   1.8450000e+04  -6.0000000e+00
   3.7834000e+01   1.0000000e+01   9.0000000e+00   1.4000000e+01   1.9000000e+04  -1.0000000e+01
   3.8074000e+01   6.0000000e+00   8.0000000e+00   1.4000000e+01   1.5510000e+04  -6.0000000e+00
   3.8474000e+01   6.0000000e+00   6.0000000e+00   7.0000000e+00   6.6600000e+03  -6.0000000e+00
   3.8726000e+01   4.0000000e+00   6.0000000e+00   8.0000000e+00   8.1240000e+03  -4.0000000e+00
   3.9126000e+01   7.0000000e+00   5.0000000e+00   7.0000000e+00   7.5400000e+03  -7.0000000e+00
   3.9367000e+01   7.0000000e+00   6.0000000e+00   7.0000000e+00   7.4370000e+03  -7.0000000e+00
   3.9767000e+01   6.0000000e+00   6.0000000e+00   7.0000000e+00   7.5400000e+03  -6.0000000e+00
   4.0007000e+01   5.0000000e+00   5.0000000e+00   8.0000000e+00   7.7810000e+03  -5.0000000e+00
   4.0433000e+01   1.0000000e+01   7.0000000e+00   0.0000000e+00   3.1400000e+03  -1.0000000e+01
   4.0673000e+01   9.0000000e+00   6.0000000e+00   0.0000000e+00   3.2100000e+03  -9.0000000e+00
   4.1074000e+01   1.0000000e+01   6.0000000e+00   0.0000000e+00   3.6800000e+03  -1.0000000e+01
   4.1329000e+01   8.0000000e+00   8.0000000e+00   0.0000000e+00   3.3100000e+03  -8.0000000e+00
   4.1729000e+01   1.0000000e+01   6.0000000e+00   0.0000000e+00   3.8600000e+03  -1.0000000e+01
   4.1979000e+01   8.0000000e+00   7.0000000e+00   0.0000000e+00   3.1100000e+03  -8.0000000e+00
   4.6919000e+01   7.0000000e+00   4.0000000e+00   0.0000000e+00   2.8100000e+03  -7.0000000e+00
   4.7399000e+01   8.0000000e+00   2.0000000e+00   3.0000000e+00   3.1800000e+03  -8.0000000e+00
   4.9364000e+01   3.0000000e+00   4.0000000e+00   3.0000000e+00   3.7200000e+03  -3.0000000e+00
   4.9604000e+01   3.0000000e+00   4.0000000e+00   5.0000000e+00   5.0900000e+03  -3.0000000e+00
   4.9790000e+01   2.0000000e+00   3.0000000e+00   5.0000000e+00   4.5500000e+03  -2.0000000e+00
   5.0332000e+01   1.0000000e+00   2.0000000e+00   4.0000000e+00   4.1200000e+03  -1.0000000e+00
   5.0572000e+01   2.0000000e+00   3.0000000e+00   4.0000000e+00   3.8300000e+03  -2.0000000e+00
   5.0967000e+01   1.0000000e+00   2.0000000e+00   4.0000000e+00   3.6300000e+03  -1.0000000e+00
   5.1207000e+01   1.0000000e+00   1.0000000e+00   3.0000000e+00   3.3100000e+03  -1.0000000e+00
   5.1847000e+01   1.0000000e+00   1.0000000e+00   4.0000000e+00   3.6600000e+03  -1.0000000e+00
   5.2211000e+01   7.0000000e+00   2.0000000e+00   4.0000000e+00   3.6600000e+03  -7.0000000e+00
   5.3955000e+01   4.0000000e+00   9.0000000e+00   0.0000000e+00   3.1800000e+03  -4.0000000e+00
   5.4965000e+01   7.0000000e+00   8.0000000e+00   0.0000000e+00   2.9100000e+03  -7.0000000e+00
   5.7885000e+01   7.0000000e+00   1.0000000e+01   0.0000000e+00   2.8800000e+03  -7.0000000e+00
   6.0725000e+01   8.0000000e+00   1.0000000e+00   0.0000000e+00   3.2800000e+03  -8.0000000e+00
   6.0965000e+01   5.0000000e+00   2.0000000e+00   0.0000000e+00   3.3100000e+03  -5.0000000e+00
   6.1355000e+01   7.0000000e+00   1.0000000e+00   0.0000000e+00   3.4100000e+03  -7.0000000e+00
   6.1595000e+01   8.0000000e+00   2.0000000e+00   0.0000000e+00   3.3800000e+03  -8.0000000e+00
   6.1995000e+01   6.0000000e+00   2.0000000e+00   0.0000000e+00   3.3800000e+03  -6.0000000e+00
   6.2245000e+01   4.0000000e+00   4.0000000e+00   0.0000000e+00   3.2100000e+03  -4.0000000e+00
   6.2655000e+01   7.0000000e+00   7.0000000e+00   0.0000000e+00   3.2800000e+03  -7.0000000e+00
   6.2895000e+01   7.0000000e+00   7.0000000e+00   0.0000000e+00   3.1500000e+03  -7.0000000e+00
   6.3295000e+01   8.0000000e+00   7.0000000e+00   0.0000000e+00   3.1500000e+03  -8.0000000e+00
   6.3375000e+01   1.0000000e+01   5.0000000e+00   0.0000000e+00   3.4800000e+03  -1.0000000e+01
   6.3947000e+01   5.0000000e+00   7.0000000e+00   0.0000000e+00   3.8200000e+03  -5.0000000e+00
   6.4347000e+01   8.0000000e+00   1.0000000e+01   0.0000000e+00   3.2500000e+03  -8.0000000e+00
   6.4587000e+01   9.0000000e+00   1.0000000e+01   0.0000000e+00   3.6300000e+03  -9.0000000e+00
   6.4827000e+01   1.0000000e+01   1.0000000e+01   0.0000000e+00   3.3200000e+03  -1.0000000e+01
   6.6957000e+01   9.0000000e+00   4.0000000e+00   0.0000000e+00   3.4500000e+03  -9.0000000e+00
   6.7357000e+01   7.0000000e+00   7.0000000e+00   0.0000000e+00   3.4100000e+03  -7.0000000e+00
   6.7757000e+01   8.0000000e+00   7.0000000e+00   0.0000000e+00   3.4100000e+03  -8.0000000e+00
   6.7997000e+01   1.0000000e+01   3.0000000e+00   0.0000000e+00   3.3200000e+03  -1.0000000e+01
   6.8237000e+01   9.0000000e+00   2.0000000e+00   0.0000000e+00   3.4100000e+03  -9.0000000e+00
   6.8270000e+01   1.0000000e+01   4.0000000e+00   0.0000000e+00   3.4450000e+03  -1.0000000e+01
   6.8510000e+01   8.0000000e+00   6.0000000e+00   0.0000000e+00   3.5100000e+03  -8.0000000e+00
   6.8915000e+01   6.0000000e+00   6.0000000e+00   0.0000000e+00   3.5400000e+03  -6.0000000e+00
   6.9155000e+01   9.0000000e+00   7.0000000e+00   0.0000000e+00   3.4100000e+03  -9.0000000e+00
   6.9555000e+01   3.0000000e+00   3.0000000e+00   0.0000000e+00   3.7000000e+03  -3.0000000e+00
   6.9795000e+01   6.0000000e+00   5.0000000e+00   0.0000000e+00   3.3300000e+03  -6.0000000e+00
   7.0195000e+01   6.0000000e+00   5.0000000e+00   0.0000000e+00   3.0100000e+03  -6.0000000e+00
   7.0435000e+01   5.0000000e+00   5.0000000e+00   0.0000000e+00   3.3300000e+03  -5.0000000e+00
   7.0982000e+01   4.0000000e+00   2.0000000e+00   3.0000000e+00   2.9000000e+03  -4.0000000e+00
   7.1246000e+01   6.0000000e+00   5.0000000e+00   0.0000000e+00   3.4800000e+03  -6.0000000e+00
   7.1296000e+01   4.0000000e+00   6.0000000e+00   1.0000000e+00   3.0710000e+03  -4.0000000e+00
   7.1646000e+01   4.0000000e+00   3.0000000e+00   0.0000000e+00   2.7100000e+03  -4.0000000e+00
   7.1809000e+01   7.0000000e+00   7.0000000e+00   6.0000000e+00   5.7600000e+03  -7.0000000e+00
   7.1886000e+01   3.0000000e+00   3.0000000e+00   0.0000000e+00   2.7300000e+03  -3.0000000e+00
   7.2209000e+01   7.0000000e+00   9.0000000e+00   6.0000000e+00   6.1300000e+03  -7.0000000e+00
   7.2449000e+01   8.0000000e+00   8.0000000e+00   5.0000000e+00   5.2500000e+03  -8.0000000e+00
   7.2849000e+01   5.0000000e+00   6.0000000e+00   2.0000000e+00   3.6800000e+03  -5.0000000e+00
   7.3099000e+01   9.0000000e+00   1.0000000e+01   2.0000000e+00   3.2250000e+03  -9.0000000e+00
   7.3560000e+01   3.0000000e+00   3.0000000e+00   0.0000000e+00   2.8300000e+03  -3.0000000e+00
   7.3800000e+01   4.0000000e+00   4.0000000e+00   0.0000000e+00   2.8480000e+03  -4.0000000e+00
   7.4040000e+01   5.0000000e+00   5.0000000e+00   0.0000000e+00   2.9500000e+03  -5.0000000e+00
   7.4435000e+01   3.0000000e+00   4.0000000e+00   0.0000000e+00   2.6830000e+03  -3.0000000e+00
   7.4675000e+01   4.0000000e+00   6.0000000e+00   3.0000000e+00   3.6110000e+03  -4.0000000e+00
   7.5075000e+01   8.0000000e+00   1.0000000e+01   7.0000000e+00   7.4900000e+03  -8.0000000e+00
   7.5485000e+01   5.0000000e+00   6.0000000e+00   7.0000000e+00   6.6500000e+03  -5.0000000e+00
   7.5725000e+01   6.0000000e+00   7.0000000e+00   7.0000000e+00   7.4500000e+03  -6.0000000e+00
   7.6045000e+01   7.0000000e+00   7.0000000e+00   8.0000000e+00   8.0400000e+03  -7.0000000e+00
   7.6360000e+01   4.0000000e+00   6.0000000e+00   7.0000000e+00   6.6000000e+03  -4.0000000e+00
   7.6600000e+01   8.0000000e+00   6.0000000e+00   3.0000000e+00   3.3510000e+03  -8.0000000e+00
   7.7000000e+01   9.0000000e+00   7.0000000e+00   3.0000000e+00   3.2600000e+03  -9.0000000e+00
   7.7530000e+01   1.0000000e+01   7.0000000e+00   0.0000000e+00   3.1510000e+03  -1.0000000e+01
   7.7770000e+01   9.0000000e+00   7.0000000e+00   0.0000000e+00   3.4480000e+03  -9.0000000e+00
   7.8010000e+01   9.0000000e+00   6.0000000e+00   0.0000000e+00   3.3660000e+03  -9.0000000e+00
   8.0200000e+01   1.0000000e+01   8.0000000e+00   0.0000000e+00   3.2170000e+03  -1.0000000e+01
   8.0440000e+01   1.0000000e+01   8.0000000e+00   0.0000000e+00   3.3000000e+03  -1.0000000e+01
   8.0730000e+01   1.0000000e+01   5.0000000e+00   3.0000000e+00   3.1510000e+03  -1.0000000e+01
   8.1050000e+01   7.0000000e+00   6.0000000e+00   0.0000000e+00   3.0700000e+03  -7.0000000e+00
   8.1370000e+01   1.0000000e+01   2.0000000e+00   0.0000000e+00   3.1500000e+03  -1.0000000e+01
   8.1690000e+01   8.0000000e+00   3.0000000e+00   0.0000000e+00   2.9900000e+03  -8.0000000e+00
   8.1950000e+01   9.0000000e+00   2.0000000e+00   0.0000000e+00   2.9100000e+03  -9.0000000e+00
   8.2320000e+01   7.0000000e+00   4.0000000e+00   0.0000000e+00   3.0700000e+03  -7.0000000e+00
   8.2635000e+01   4.0000000e+00   3.0000000e+00   0.0000000e+00   2.5800000e+03  -4.0000000e+00
   8.2960000e+01   8.0000000e+00   7.0000000e+00   0.0000000e+00   3.1500000e+03  -8.0000000e+00
   8.3280000e+01   6.0000000e+00   2.0000000e+00   0.0000000e+00   2.9900000e+03  -6.0000000e+00
   8.3600000e+01   1.0000000e+01   8.0000000e+00   0.0000000e+00   3.3200000e+03  -1.0000000e+01
   8.3920000e+01   7.0000000e+00   9.0000000e+00   0.0000000e+00   2.9900000e+03  -7.0000000e+00
   8.4240000e+01   6.0000000e+00   1.0000000e+01   6.0000000e+00   5.6900000e+03  -6.0000000e+00
   8.4560000e+01   5.0000000e+00   8.0000000e+00   0.0000000e+00   2.9100000e+03  -5.0000000e+00
   8.4880000e+01   8.0000000e+00   3.0000000e+00   0.0000000e+00   2.8300000e+03  -8.0000000e+00
   8.5200000e+01   9.0000000e+00   3.0000000e+00   0.0000000e+00   2.9100000e+03  -9.0000000e+00
   8.5520000e+01   6.0000000e+00   4.0000000e+00   0.0000000e+00   2.9100000e+03  -6.0000000e+00
   8.5840000e+01   6.0000000e+00   5.0000000e+00   0.0000000e+00   2.9100000e+03  -6.0000000e+00
   8.6160000e+01   4.0000000e+00   3.0000000e+00   0.0000000e+00   2.8300000e+03  -4.0000000e+00
   8.6480000e+01   8.0000000e+00   2.0000000e+00   0.0000000e+00   2.8300000e+03  -8.0000000e+00
   8.6800000e+01   6.0000000e+00   7.0000000e+00   0.0000000e+00   2.8300000e+03  -6.0000000e+00
   8.7869000e+01   5.0000000e+00   3.0000000e+00   6.0000000e+00   6.0700000e+03  -5.0000000e+00
   8.8189000e+01   4.0000000e+00   2.0000000e+00   5.0000000e+00   5.3600000e+03  -4.0000000e+00
   8.8509000e+01   2.0000000e+00   2.0000000e+00   1.0000000e+00   2.7300000e+03  -2.0000000e+00
   8.8829000e+01   5.0000000e+00   4.0000000e+00   3.0000000e+00   3.8600000e+03  -5.0000000e+00
   8.9150000e+01   6.0000000e+00   2.0000000e+00   0.0000000e+00   2.8200000e+03  -6.0000000e+00
   8.9470000e+01   5.0000000e+00   3.0000000e+00   0.0000000e+00   2.6300000e+03  -5.0000000e+00
   8.9790000e+01   5.0000000e+00   3.0000000e+00   0.0000000e+00   2.6300000e+03  -5.0000000e+00
   9.0110000e+01   4.0000000e+00   4.0000000e+00   0.0000000e+00   3.0200000e+03  -4.0000000e+00
   9.0869000e+01   4.0000000e+00   4.0000000e+00   0.0000000e+00   3.2000000e+03  -4.0000000e+00
   9.1189000e+01   5.0000000e+00   4.0000000e+00   0.0000000e+00   3.2000000e+03  -5.0000000e+00
   9.1509000e+01   5.0000000e+00   5.0000000e+00   0.0000000e+00   3.2000000e+03  -5.0000000e+00
   9.1829000e+01   7.0000000e+00   3.0000000e+00   0.0000000e+00   3.2900000e+03  -7.0000000e+00
   9.2148000e+01   7.0000000e+00   1.0000000e+00   0.0000000e+00   3.0100000e+03  -7.0000000e+00
   9.2468000e+01   7.0000000e+00   2.0000000e+00   0.0000000e+00   3.1000000e+03  -7.0000000e+00
   9.2788000e+01   8.0000000e+00   1.0000000e+00   0.0000000e+00   3.1000000e+03  -8.0000000e+00
   9.3108000e+01   7.0000000e+00   5.0000000e+00   0.0000000e+00   2.6300000e+03  -7.0000000e+00
   9.4616000e+01   7.0000000e+00   1.0000000e+00   0.0000000e+00   3.0400000e+03  -7.0000000e+00
   9.4938000e+01   5.0000000e+00   1.0000000e+00   0.0000000e+00   3.0400000e+03  -5.0000000e+00
   9.5258000e+01   7.0000000e+00   0.0000000e+00   0.0000000e+00   2.4000000e+03  -7.0000000e+00
   9.5491000e+01   7.0000000e+00   1.0000000e+00   0.0000000e+00   2.5400000e+03  -7.0000000e+00
   9.5610000e+01   7.0000000e+00   1.0000000e+00   0.0000000e+00   3.5000000e+03  -7.0000000e+00
   9.5790000e+01   9.0000000e+00   2.0000000e+00   0.0000000e+00   3.3200000e+03  -9.0000000e+00
   9.5811000e+01   7.0000000e+00   2.0000000e+00   0.0000000e+00   3.2900000e+03  -7.0000000e+00
   9.6131000e+01   7.0000000e+00   4.0000000e+00   0.0000000e+00   3.1000000e+03  -7.0000000e+00
   9.6451000e+01   8.0000000e+00   2.0000000e+00   0.0000000e+00   3.1000000e+03  -8.0000000e+00
   9.6771000e+01   8.0000000e+00   5.0000000e+00   0.0000000e+00   3.1000000e+03  -8.0000000e+00
   9.7091000e+01   9.0000000e+00   6.0000000e+00   0.0000000e+00   3.1000000e+03  -9.0000000e+00
   9.7411000e+01   7.0000000e+00   2.0000000e+00   0.0000000e+00   3.0200000e+03  -7.0000000e+00
   9.7731000e+01   9.0000000e+00   1.0000000e+00   0.0000000e+00   3.2000000e+03  -9.0000000e+00
   9.7971000e+01   8.0000000e+00   1.0000000e+00   0.0000000e+00   3.2000000e+03  -8.0000000e+00
   9.8251000e+01   9.0000000e+00   0.0000000e+00   0.0000000e+00   3.2000000e+03  -9.0000000e+00
   9.8571000e+01   8.0000000e+00   4.0000000e+00   0.0000000e+00   3.2000000e+03  -8.0000000e+00
   9.8891000e+01   8.0000000e+00   5.0000000e+00   0.0000000e+00   3.2000000e+03  -8.0000000e+00
   9.9204000e+01   9.0000000e+00   3.0000000e+00   0.0000000e+00   3.2000000e+03  -9.0000000e+00
   9.9524000e+01   1.0000000e+01   6.0000000e+00   0.0000000e+00   3.3900000e+03  -1.0000000e+01
   9.9844000e+01   1.0000000e+01   4.0000000e+00   0.0000000e+00   2.6300000e+03  -1.0000000e+01
   1.0016600e+02   9.0000000e+00   3.0000000e+00   0.0000000e+00   3.0100000e+03  -9.0000000e+00
   1.0048600e+02   7.0000000e+00   6.0000000e+00   0.0000000e+00   3.2000000e+03  -7.0000000e+00
   1.0108900e+02   7.0000000e+00   0.0000000e+00   0.0000000e+00   2.9500000e+03  -7.0000000e+00
   1.0140900e+02   8.0000000e+00   1.0000000e+00   0.0000000e+00   3.1500000e+03  -8.0000000e+00
   1.0172900e+02   7.0000000e+00   4.0000000e+00   0.0000000e+00   2.9500000e+03  -7.0000000e+00
   1.0394900e+02   6.0000000e+00   2.0000000e+00   0.0000000e+00   2.4200000e+03  -6.0000000e+00
   1.0426900e+02   5.0000000e+00   6.0000000e+00   0.0000000e+00   2.5000000e+03  -5.0000000e+00
   1.0458900e+02   6.0000000e+00   6.0000000e+00   0.0000000e+00   2.9900000e+03  -6.0000000e+00
   1.0490900e+02   5.0000000e+00   5.0000000e+00   0.0000000e+00   2.6000000e+03  -5.0000000e+00
   1.0522900e+02   5.0000000e+00   5.0000000e+00   0.0000000e+00   2.6000000e+03  -5.0000000e+00
   1.0555400e+02   6.0000000e+00   3.0000000e+00   0.0000000e+00   2.6000000e+03  -6.0000000e+00
   1.0587400e+02   5.0000000e+00   4.0000000e+00   0.0000000e+00   2.5000000e+03  -5.0000000e+00
   1.0619400e+02   5.0000000e+00   5.0000000e+00   0.0000000e+00   2.5000000e+03  -5.0000000e+00
   1.0651400e+02   6.0000000e+00   5.0000000e+00   0.0000000e+00   2.5000000e+03  -6.0000000e+00
   1.0707900e+02   6.0000000e+00   3.0000000e+00   0.0000000e+00   2.5000000e+03  -6.0000000e+00
   1.0739900e+02   6.0000000e+00   4.0000000e+00   0.0000000e+00   3.0000000e+03  -6.0000000e+00
   1.0771900e+02   6.0000000e+00   1.0000000e+00   0.0000000e+00   3.0100000e+03  -6.0000000e+00
   1.0803900e+02   8.0000000e+00   3.0000000e+00   0.0000000e+00   3.2400000e+03  -8.0000000e+00
   1.0869900e+02   7.0000000e+00   2.0000000e+00   0.0000000e+00   3.1000000e+03  -7.0000000e+00
   1.0876400e+02   7.0000000e+00   2.0000000e+00   0.0000000e+00   3.2000000e+03  -7.0000000e+00
   1.0893900e+02   6.0000000e+00   5.0000000e+00   0.0000000e+00   3.1000000e+03  -6.0000000e+00
   1.0904400e+02   5.0000000e+00   5.0000000e+00   0.0000000e+00   3.0100000e+03  -5.0000000e+00
   1.0939700e+02   6.0000000e+00   5.0000000e+00   0.0000000e+00   3.0100000e+03  -6.0000000e+00
   1.0971700e+02   6.0000000e+00   4.0000000e+00   0.0000000e+00   3.0100000e+03  -6.0000000e+00
   1.1003700e+02   7.0000000e+00   6.0000000e+00   0.0000000e+00   3.0100000e+03  -7.0000000e+00
   1.1036000e+02   7.0000000e+00   6.0000000e+00   0.0000000e+00   3.0100000e+03  -7.0000000e+00
   1.1068000e+02   7.0000000e+00   6.0000000e+00   0.0000000e+00   3.0100000e+03  -7.0000000e+00
   1.1100000e+02   6.0000000e+00   6.0000000e+00   0.0000000e+00   3.0100000e+03  -6.0000000e+00
   1.1177500e+02   6.0000000e+00   7.0000000e+00   1.0000000e+00   3.6000000e+03  -6.0000000e+00
   1.1209500e+02   5.0000000e+00   6.0000000e+00   1.0000000e+00   3.5000000e+03  -5.0000000e+00
   1.1241500e+02   7.0000000e+00   6.0000000e+00   0.0000000e+00   3.0000000e+03  -7.0000000e+00
   1.1258500e+02   7.0000000e+00   5.0000000e+00   0.0000000e+00   3.2000000e+03  -7.0000000e+00
   1.1358000e+02   8.0000000e+00   4.0000000e+00   0.0000000e+00   3.2100000e+03  -8.0000000e+00
   1.1390000e+02   9.0000000e+00   4.0000000e+00   0.0000000e+00   3.2100000e+03  -9.0000000e+00
   1.1395000e+02   7.0000000e+00   2.0000000e+00   0.0000000e+00   3.2700000e+03  -7.0000000e+00
   1.1422000e+02   8.0000000e+00   2.0000000e+00   2.0000000e+00   2.8700000e+03  -8.0000000e+00
   1.1427000e+02   7.0000000e+00   1.0000000e+00   0.0000000e+00   3.0600000e+03  -7.0000000e+00
   1.1445000e+02   8.0000000e+00   8.0000000e+00   0.0000000e+00   3.6300000e+03  -8.0000000e+00
   1.1459000e+02   7.0000000e+00   1.0000000e+00   0.0000000e+00   3.0200000e+03  -7.0000000e+00
   1.1460000e+02   7.0000000e+00   6.0000000e+00   0.0000000e+00   3.1200000e+03  -7.0000000e+00
   1.1491000e+02   5.0000000e+00   2.0000000e+00   0.0000000e+00   2.8600000e+03  -5.0000000e+00
   1.1523000e+02   7.0000000e+00   2.0000000e+00   0.0000000e+00   3.0200000e+03  -7.0000000e+00
   1.1555000e+02   8.0000000e+00   2.0000000e+00   0.0000000e+00   3.4700000e+03  -8.0000000e+00
   1.1587000e+02   3.0000000e+00   3.0000000e+00   0.0000000e+00   2.5500000e+03  -3.0000000e+00
   1.1619000e+02   5.0000000e+00   4.0000000e+00   5.0000000e+00   5.1200000e+03  -5.0000000e+00
   1.1651000e+02   4.0000000e+00   5.0000000e+00   5.0000000e+00   5.4200000e+03  -4.0000000e+00
   1.1683000e+02   4.0000000e+00   5.0000000e+00   4.0000000e+00   4.4400000e+03  -4.0000000e+00
   1.1715000e+02   4.0000000e+00   6.0000000e+00   3.0000000e+00   3.6200000e+03  -4.0000000e+00
   1.1746500e+02   5.0000000e+00   4.0000000e+00   4.0000000e+00   4.1400000e+03  -5.0000000e+00
   1.1778600e+02   3.0000000e+00   5.0000000e+00   5.0000000e+00   5.2700000e+03  -3.0000000e+00
   1.1792400e+02   5.0000000e+00   4.0000000e+00   5.0000000e+00   5.2700000e+03  -5.0000000e+00
   1.1793400e+02   5.0000000e+00   6.0000000e+00   5.0000000e+00   5.2400000e+03  -5.0000000e+00
   1.1825400e+02   5.0000000e+00   6.0000000e+00   6.0000000e+00   5.5700000e+03  -5.0000000e+00
   1.1857400e+02   5.0000000e+00   5.0000000e+00   5.0000000e+00   5.0700000e+03  -5.0000000e+00
   1.1889400e+02   5.0000000e+00   4.0000000e+00   5.0000000e+00   5.2400000e+03  -5.0000000e+00
   1.1921900e+02   5.0000000e+00   4.0000000e+00   5.0000000e+00   5.4900000e+03  -5.0000000e+00
   1.1962400e+02   4.0000000e+00   6.0000000e+00   5.0000000e+00   5.3200000e+03  -4.0000000e+00
   1.1966000e+02   3.0000000e+00   4.0000000e+00   4.0000000e+00   4.6200000e+03  -3.0000000e+00
   1.1997200e+02   4.0000000e+00   5.0000000e+00   4.0000000e+00   4.8200000e+03  -4.0000000e+00
   1.2029200e+02   3.0000000e+00   4.0000000e+00   5.0000000e+00   5.1100000e+03  -3.0000000e+00
   1.2061200e+02   3.0000000e+00   4.0000000e+00   4.0000000e+00   4.3200000e+03  -3.0000000e+00
   1.2093000e+02   3.0000000e+00   3.0000000e+00   4.0000000e+00   4.7200000e+03  -3.0000000e+00
   1.2107000e+02   3.0000000e+00   3.0000000e+00   3.0000000e+00   3.5400000e+03  -3.0000000e+00
   1.2172900e+02   2.0000000e+00   3.0000000e+00   4.0000000e+00   4.6700000e+03  -2.0000000e+00
   1.2198900e+02   3.0000000e+00   3.0000000e+00   4.0000000e+00   4.3200000e+03  -3.0000000e+00
   1.2230900e+02   5.0000000e+00   5.0000000e+00   4.0000000e+00   4.6900000e+03  -5.0000000e+00
   1.2262900e+02   5.0000000e+00   4.0000000e+00   4.0000000e+00   4.4700000e+03  -5.0000000e+00
   1.2303900e+02   7.0000000e+00   6.0000000e+00   3.0000000e+00   3.9100000e+03  -7.0000000e+00
   1.2326000e+02   7.0000000e+00   5.0000000e+00   2.0000000e+00   3.5000000e+03  -7.0000000e+00
   1.2358000e+02   7.0000000e+00   5.0000000e+00   3.0000000e+00   3.8200000e+03  -7.0000000e+00
   1.2390000e+02   7.0000000e+00   3.0000000e+00   3.0000000e+00   4.0300000e+03  -7.0000000e+00
   1.2422000e+02   9.0000000e+00   2.0000000e+00   1.0000000e+00   3.5000000e+03  -9.0000000e+00
   1.2455000e+02   8.0000000e+00   3.0000000e+00   0.0000000e+00   3.0700000e+03  -8.0000000e+00
   1.2487000e+02   9.0000000e+00   3.0000000e+00   0.0000000e+00   3.1700000e+03  -9.0000000e+00
   1.2519000e+02   9.0000000e+00   1.0000000e+00   0.0000000e+00   3.1700000e+03  -9.0000000e+00
   1.2551000e+02   9.0000000e+00   1.0000000e+00   0.0000000e+00   3.1700000e+03  -9.0000000e+00
   1.2583000e+02   9.0000000e+00   8.0000000e+00   0.0000000e+00   3.1700000e+03  -9.0000000e+00
   1.2614700e+02   9.0000000e+00   8.0000000e+00   0.0000000e+00   3.1700000e+03  -9.0000000e+00
   1.2646700e+02   9.0000000e+00   8.0000000e+00   0.0000000e+00   3.1700000e+03  -9.0000000e+00
   1.2657200e+02   8.0000000e+00   7.0000000e+00   0.0000000e+00   3.0700000e+03  -8.0000000e+00
   1.2709800e+02   6.0000000e+00   7.0000000e+00   1.0000000e+00   3.7100000e+03  -6.0000000e+00
   1.2742300e+02   4.0000000e+00   5.0000000e+00   1.0000000e+00   3.6000000e+03  -4.0000000e+00
   1.2780800e+02   6.0000000e+00   1.0000000e+00   0.0000000e+00   2.6100000e+03  -6.0000000e+00
   1.2812800e+02   7.0000000e+00   2.0000000e+00   0.0000000e+00   2.9100000e+03  -7.0000000e+00
   1.2845300e+02   8.0000000e+00   1.0000000e+00   1.0000000e+00   3.0100000e+03  -8.0000000e+00
   1.2877300e+02   6.0000000e+00   2.0000000e+00   3.0000000e+00   3.9900000e+03  -6.0000000e+00
   1.2909300e+02   7.0000000e+00   3.0000000e+00   3.0000000e+00   3.9900000e+03  -7.0000000e+00
   1.2941300e+02   8.0000000e+00   3.0000000e+00   4.0000000e+00   4.4900000e+03  -8.0000000e+00
   1.2973300e+02   6.0000000e+00   5.0000000e+00   5.0000000e+00   5.0800000e+03  -6.0000000e+00
   1.3004800e+02   6.0000000e+00   5.0000000e+00   5.0000000e+00   5.7700000e+03  -6.0000000e+00
   1.3036800e+02   4.0000000e+00   6.0000000e+00   6.0000000e+00   6.6600000e+03  -4.0000000e+00
   1.3068800e+02   1.0000000e+00   7.0000000e+00   4.0000000e+00   4.4900000e+03  -1.0000000e+00
   1.3100800e+02   0.0000000e+00   8.0000000e+00   6.0000000e+00   6.7600000e+03   0.0000000e+00
   1.3132800e+02   1.0000000e+00   8.0000000e+00   6.0000000e+00   6.7100000e+03  -1.0000000e+00
   1.3165300e+02   1.0000000e+00   7.0000000e+00   6.0000000e+00   6.6400000e+03  -1.0000000e+00
   1.3197300e+02   5.0000000e+00   7.0000000e+00   6.0000000e+00   6.8500000e+03  -5.0000000e+00
   1.3229300e+02   1.0000000e+00   7.0000000e+00   5.0000000e+00   5.7600000e+03  -1.0000000e+00
   1.3261300e+02   2.0000000e+00   8.0000000e+00   6.0000000e+00   6.6400000e+03  -2.0000000e+00
   1.3305400e+02   1.0000000e+00   8.0000000e+00   6.0000000e+00   6.6400000e+03  -1.0000000e+00
   1.3334400e+02   6.0000000e+00   5.0000000e+00   7.0000000e+00   7.7700000e+03  -6.0000000e+00
   1.3378600e+02   7.0000000e+00   7.0000000e+00   6.0000000e+00   6.5800000e+03  -7.0000000e+00
   1.3418600e+02   6.0000000e+00   6.0000000e+00   7.0000000e+00   7.1700000e+03  -6.0000000e+00
   1.3450600e+02   1.0000000e+00   9.0000000e+00   8.0000000e+00   8.8800000e+03  -1.0000000e+00
   1.3462600e+02   1.0000000e+00   9.0000000e+00   8.0000000e+00   8.3400000e+03  -1.0000000e+00
   1.3496600e+02   1.0000000e+00   1.0000000e+01   8.0000000e+00   8.4100000e+03  -1.0000000e+00
   1.3528600e+02   1.0000000e+00   1.0000000e+01   9.0000000e+00   9.4200000e+03  -1.0000000e+00
   1.3553700e+02   1.0000000e+00   1.0000000e+01   9.0000000e+00   9.0500000e+03  -1.0000000e+00
   1.3585700e+02   4.0000000e+00   9.0000000e+00   5.0000000e+00   5.7200000e+03  -4.0000000e+00
   1.3617700e+02   5.0000000e+00   8.0000000e+00   6.0000000e+00   6.1500000e+03  -5.0000000e+00
   1.3649700e+02   7.0000000e+00   7.0000000e+00   7.0000000e+00   7.2600000e+03  -7.0000000e+00
   1.3681700e+02   7.0000000e+00   6.0000000e+00   7.0000000e+00   7.6900000e+03  -7.0000000e+00
   1.3713700e+02   5.0000000e+00   8.0000000e+00   6.0000000e+00   6.2300000e+03  -5.0000000e+00
   1.3745700e+02   3.0000000e+00   8.0000000e+00   5.0000000e+00   5.0700000e+03  -3.0000000e+00
   1.3777700e+02   5.0000000e+00   7.0000000e+00   6.0000000e+00   6.3200000e+03  -5.0000000e+00
   1.3809700e+02   5.0000000e+00   6.0000000e+00   6.0000000e+00   6.0800000e+03  -5.0000000e+00
   1.3835700e+02   7.0000000e+00   8.0000000e+00   6.0000000e+00   6.6600000e+03  -7.0000000e+00
   1.3867700e+02   6.0000000e+00   7.0000000e+00   7.0000000e+00   7.8200000e+03  -6.0000000e+00
   1.3899700e+02   6.0000000e+00   7.0000000e+00   4.0000000e+00   4.7000000e+03  -6.0000000e+00
   1.3931700e+02   6.0000000e+00   8.0000000e+00   8.0000000e+00   8.0500000e+03  -6.0000000e+00
   1.3963700e+02   4.0000000e+00   8.0000000e+00   6.0000000e+00   6.2900000e+03  -4.0000000e+00
   1.3995700e+02   7.0000000e+00   7.0000000e+00   7.0000000e+00   7.3000000e+03  -7.0000000e+00
   1.4027700e+02   1.0000000e+00   9.0000000e+00   4.0000000e+00   4.9700000e+03  -1.0000000e+00
   1.4062500e+02   1.0000000e+00   7.0000000e+00   4.0000000e+00   4.9900000e+03  -1.0000000e+00
   1.4094000e+02   4.0000000e+00   5.0000000e+00   5.0000000e+00   5.1100000e+03  -4.0000000e+00
   1.4126000e+02   4.0000000e+00   6.0000000e+00   5.0000000e+00   5.8900000e+03  -4.0000000e+00
   1.4158000e+02   5.0000000e+00   5.0000000e+00   6.0000000e+00   6.0300000e+03  -5.0000000e+00
   1.4190000e+02   8.0000000e+00   5.0000000e+00   8.0000000e+00   8.7000000e+03  -8.0000000e+00
   1.4221600e+02   9.0000000e+00   4.0000000e+00   9.0000000e+00   9.9400000e+03  -9.0000000e+00
   1.4252600e+02   9.0000000e+00   3.0000000e+00   7.0000000e+00   7.5000000e+03  -9.0000000e+00
   1.4284600e+02   5.0000000e+00   4.0000000e+00   3.0000000e+00   3.6600000e+03  -5.0000000e+00
   1.4347800e+02   8.0000000e+00   6.0000000e+00   6.0000000e+00   6.2000000e+03  -8.0000000e+00
   1.4379800e+02   8.0000000e+00   3.0000000e+00   6.0000000e+00   6.8300000e+03  -8.0000000e+00
   1.4411800e+02   9.0000000e+00   5.0000000e+00   5.0000000e+00   5.4000000e+03  -9.0000000e+00
   1.4544600e+02   7.0000000e+00   1.0000000e+01   5.0000000e+00   5.8700000e+03  -7.0000000e+00
   1.4576600e+02   9.0000000e+00   3.0000000e+00   8.0000000e+00   8.4200000e+03  -9.0000000e+00
   1.4608600e+02   8.0000000e+00   3.0000000e+00   9.0000000e+00   9.6900000e+03  -8.0000000e+00
   1.4640600e+02   7.0000000e+00   6.0000000e+00   9.0000000e+00   9.0600000e+03  -7.0000000e+00
   1.4672600e+02   1.0000000e+01   4.0000000e+00   5.0000000e+00   5.9300000e+03  -1.0000000e+01
   1.4701600e+02   9.0000000e+00   6.0000000e+00   7.0000000e+00   7.9500000e+03  -9.0000000e+00
   1.4735600e+02   9.0000000e+00   5.0000000e+00   6.0000000e+00   6.0600000e+03  -9.0000000e+00
   1.4767600e+02   9.0000000e+00   5.0000000e+00   3.0000000e+00   3.9600000e+03  -9.0000000e+00
   1.4799600e+02   8.0000000e+00   4.0000000e+00   3.0000000e+00   3.6700000e+03  -8.0000000e+00
   1.4831600e+02   6.0000000e+00   4.0000000e+00   0.0000000e+00   2.5100000e+03  -6.0000000e+00
   1.4863600e+02   1.0000000e+01   1.0000000e+00   0.0000000e+00   3.0900000e+03  -1.0000000e+01
   1.4927600e+02   9.0000000e+00   1.0000000e+00   0.0000000e+00   2.9400000e+03  -9.0000000e+00
   1.4959600e+02   9.0000000e+00   1.0000000e+00   0.0000000e+00   3.2400000e+03  -9.0000000e+00
   1.4991600e+02   9.0000000e+00   1.0000000e+00   0.0000000e+00   3.1800000e+03  -9.0000000e+00
   1.5022800e+02   9.0000000e+00   1.0000000e+00   0.0000000e+00   3.2400000e+03  -9.0000000e+00
   1.5054800e+02   5.0000000e+00   3.0000000e+00   0.0000000e+00   2.1500000e+03  -5.0000000e+00
   1.5086800e+02   6.0000000e+00   6.0000000e+00   0.0000000e+00   2.8600000e+03  -6.0000000e+00
   1.5118800e+02   1.0000000e+00   6.0000000e+00   4.0000000e+00   4.6500000e+03  -1.0000000e+00
   1.5148800e+02   1.0000000e+00   7.0000000e+00   5.0000000e+00   5.3200000e+03  -1.0000000e+00
   1.5168800e+02   1.0000000e+00   7.0000000e+00   5.0000000e+00   5.1200000e+03  -1.0000000e+00
   1.5200800e+02   1.0000000e+00   6.0000000e+00   5.0000000e+00   5.7600000e+03  -1.0000000e+00
   1.5232800e+02   2.0000000e+00   6.0000000e+00   6.0000000e+00   6.5500000e+03  -2.0000000e+00
   1.5264800e+02   3.0000000e+00   5.0000000e+00   6.0000000e+00   6.7900000e+03  -3.0000000e+00
   1.5296800e+02   4.0000000e+00   4.0000000e+00   7.0000000e+00   7.1600000e+03  -4.0000000e+00
   1.5310000e+02   2.0000000e+00   5.0000000e+00   7.0000000e+00   7.9600000e+03  -2.0000000e+00
   1.5342000e+02   5.0000000e+00   5.0000000e+00   7.0000000e+00   7.7400000e+03  -5.0000000e+00
   1.5374000e+02   5.0000000e+00   5.0000000e+00   8.0000000e+00   8.2200000e+03  -5.0000000e+00
   1.5406000e+02   5.0000000e+00   5.0000000e+00   7.0000000e+00   7.6100000e+03  -5.0000000e+00
   1.5438000e+02   6.0000000e+00   5.0000000e+00   7.0000000e+00   7.2600000e+03  -6.0000000e+00
   1.5452000e+02   7.0000000e+00   6.0000000e+00   7.0000000e+00   7.9300000e+03  -7.0000000e+00
   1.5462700e+02   7.0000000e+00   7.0000000e+00   5.0000000e+00   5.0500000e+03  -7.0000000e+00
   1.5494700e+02   8.0000000e+00   8.0000000e+00   4.0000000e+00   4.2400000e+03  -8.0000000e+00
   1.5527600e+02   1.0000000e+01   4.0000000e+00   3.0000000e+00   3.8900000e+03  -1.0000000e+01
   1.5615200e+02   6.0000000e+00   7.0000000e+00   4.0000000e+00   4.4700000e+03  -6.0000000e+00
   1.5688200e+02   8.0000000e+00   3.0000000e+00   3.0000000e+00   3.2600000e+03  -8.0000000e+00
   1.5720200e+02   9.0000000e+00   3.0000000e+00   0.0000000e+00   3.3400000e+03  -9.0000000e+00
   1.5752200e+02   8.0000000e+00   2.0000000e+00   0.0000000e+00   3.1100000e+03  -8.0000000e+00
   1.5784200e+02   9.0000000e+00   3.0000000e+00   0.0000000e+00   3.1700000e+03  -9.0000000e+00
   1.5863600e+02   9.0000000e+00   2.0000000e+00   0.0000000e+00   3.3900000e+03  -9.0000000e+00
   1.5894900e+02   8.0000000e+00   1.0000000e+00   0.0000000e+00   2.9500000e+03  -8.0000000e+00
   1.5926900e+02   1.0000000e+01   1.0000000e+00   0.0000000e+00   3.0800000e+03  -1.0000000e+01
   1.5958900e+02   9.0000000e+00   2.0000000e+00   0.0000000e+00   3.1900000e+03  -9.0000000e+00
   1.5991000e+02   7.0000000e+00   4.0000000e+00   1.0000000e+00   3.4100000e+03  -7.0000000e+00
   1.6023900e+02   8.0000000e+00   3.0000000e+00   0.0000000e+00   3.0800000e+03  -8.0000000e+00
   1.6146600e+02   9.0000000e+00   1.0000000e+00   0.0000000e+00   3.3100000e+03  -9.0000000e+00
   1.6178600e+02   9.0000000e+00   1.0000000e+00   0.0000000e+00   3.3100000e+03  -9.0000000e+00
   1.6210600e+02   7.0000000e+00   6.0000000e+00   0.0000000e+00   3.3100000e+03  -7.0000000e+00
   1.6242000e+02   1.0000000e+00   7.0000000e+00   2.0000000e+00   3.2300000e+03  -1.0000000e+00
   1.6274000e+02   4.0000000e+00   6.0000000e+00   3.0000000e+00   3.5900000e+03  -4.0000000e+00
   1.6306000e+02   5.0000000e+00   5.0000000e+00   1.0000000e+00   3.0500000e+03  -5.0000000e+00
   1.6338000e+02   6.0000000e+00   5.0000000e+00   1.0000000e+00   3.1600000e+03  -6.0000000e+00
   1.6369500e+02   9.0000000e+00   2.0000000e+00   1.0000000e+00   3.3000000e+03  -9.0000000e+00
   1.6401500e+02   9.0000000e+00   2.0000000e+00   0.0000000e+00   3.2600000e+03  -9.0000000e+00
   1.6433500e+02   6.0000000e+00   4.0000000e+00   1.0000000e+00   2.9400000e+03  -6.0000000e+00
   1.6465500e+02   9.0000000e+00   0.0000000e+00   1.0000000e+00   3.3200000e+03  -9.0000000e+00
   1.6548100e+02   1.0000000e+01   0.0000000e+00   0.0000000e+00   3.0600000e+03  -1.0000000e+01
   1.6581000e+02   8.0000000e+00   1.0000000e+00   0.0000000e+00   3.0100000e+03  -8.0000000e+00
   1.6613000e+02   8.0000000e+00   2.0000000e+00   0.0000000e+00   3.0500000e+03  -8.0000000e+00
   1.6645000e+02   1.0000000e+01   0.0000000e+00   0.0000000e+00   3.0400000e+03  -1.0000000e+01
   1.6677000e+02   9.0000000e+00   2.0000000e+00   0.0000000e+00   2.9000000e+03  -9.0000000e+00
   1.6719500e+02   1.0000000e+01   3.0000000e+00   0.0000000e+00   3.1400000e+03  -1.0000000e+01
   1.6730000e+02   1.0000000e+01   1.0000000e+00   0.0000000e+00   3.1400000e+03  -1.0000000e+01
   1.6750300e+02   8.0000000e+00   1.0000000e+00   0.0000000e+00   3.1400000e+03  -8.0000000e+00
   1.6761000e+02   1.0000000e+01   4.0000000e+00   0.0000000e+00   2.8900000e+03  -1.0000000e+01
   1.6782300e+02   8.0000000e+00   1.0000000e+00   0.0000000e+00   3.2700000e+03  -8.0000000e+00
   1.6814300e+02   7.0000000e+00   0.0000000e+00   0.0000000e+00   2.9300000e+03  -7.0000000e+00
   1.6846300e+02   8.0000000e+00   0.0000000e+00   0.0000000e+00   3.1500000e+03  -8.0000000e+00
   1.6882500e+02   7.0000000e+00   2.0000000e+00   0.0000000e+00   3.2600000e+03  -7.0000000e+00
   1.6904700e+02   8.0000000e+00   1.0000000e+00   0.0000000e+00   2.9600000e+03  -8.0000000e+00
   1.6914500e+02   7.0000000e+00   2.0000000e+00   0.0000000e+00   3.2600000e+03  -7.0000000e+00
   1.6936500e+02   8.0000000e+00   1.0000000e+00   0.0000000e+00   3.1500000e+03  -8.0000000e+00
   1.6968600e+02   8.0000000e+00   1.0000000e+00   0.0000000e+00   3.0700000e+03  -8.0000000e+00
   1.7000600e+02   9.0000000e+00   0.0000000e+00   0.0000000e+00   3.0700000e+03  -9.0000000e+00
   1.7032600e+02   9.0000000e+00   1.0000000e+00   0.0000000e+00   3.0700000e+03  -9.0000000e+00
   1.7064600e+02   7.0000000e+00   2.0000000e+00   0.0000000e+00   3.1500000e+03  -7.0000000e+00
   1.7096600e+02   9.0000000e+00   3.0000000e+00   0.0000000e+00   3.2300000e+03  -9.0000000e+00
   1.7128600e+02   4.0000000e+00   9.0000000e+00   0.0000000e+00   2.8400000e+03  -4.0000000e+00
   1.7160600e+02   8.0000000e+00   7.0000000e+00   4.0000000e+00   4.1400000e+03  -8.0000000e+00
   1.7192500e+02   8.0000000e+00   1.0000000e+01   0.0000000e+00   2.9400000e+03  -8.0000000e+00
   1.7224500e+02   8.0000000e+00   2.0000000e+00   0.0000000e+00   3.3600000e+03  -8.0000000e+00
   1.7256500e+02   1.0000000e+01   4.0000000e+00   0.0000000e+00   3.4000000e+03  -1.0000000e+01
   1.7288500e+02   1.0000000e+01   0.0000000e+00   0.0000000e+00   2.9100000e+03  -1.0000000e+01
   1.7499500e+02   7.0000000e+00   2.0000000e+00   0.0000000e+00   2.9800000e+03  -7.0000000e+00
   1.7531500e+02   7.0000000e+00   6.0000000e+00   5.0000000e+00   5.4500000e+03  -7.0000000e+00
   1.7563500e+02   7.0000000e+00   6.0000000e+00   6.0000000e+00   6.1200000e+03  -7.0000000e+00
   1.7595500e+02   7.0000000e+00   6.0000000e+00   5.0000000e+00   5.9900000e+03  -7.0000000e+00
   1.7627500e+02   7.0000000e+00   6.0000000e+00   6.0000000e+00   6.7200000e+03  -7.0000000e+00
   1.7690700e+02   2.0000000e+00   7.0000000e+00   5.0000000e+00   5.9100000e+03  -2.0000000e+00
   1.7722700e+02   1.0000000e+01   6.0000000e+00   9.0000000e+00   9.4200000e+03  -1.0000000e+01
   1.7754700e+02   1.0000000e+00   8.0000000e+00   6.0000000e+00   6.6100000e+03  -1.0000000e+00
   1.7786700e+02   1.0000000e+00   9.0000000e+00   7.0000000e+00   7.8400000e+03  -1.0000000e+00
   1.7817900e+02   0.0000000e+00   7.0000000e+00   6.0000000e+00   6.0500000e+03   0.0000000e+00
   1.7849900e+02   0.0000000e+00   8.0000000e+00   8.0000000e+00   8.3000000e+03   0.0000000e+00
   1.7881900e+02   1.0000000e+00   8.0000000e+00   7.0000000e+00   7.6800000e+03  -1.0000000e+00
   1.7977900e+02   1.0000000e+00   7.0000000e+00   6.0000000e+00   6.3800000e+03  -1.0000000e+00
   1.8009900e+02   3.0000000e+00   8.0000000e+00   7.0000000e+00   7.1500000e+03  -3.0000000e+00
   1.8041900e+02   5.0000000e+00   6.0000000e+00   8.0000000e+00   8.0600000e+03  -5.0000000e+00
   1.8073900e+02   5.0000000e+00   6.0000000e+00   7.0000000e+00   7.0500000e+03  -5.0000000e+00
   1.8092400e+02   9.0000000e+00   7.0000000e+00   8.0000000e+00   8.3000000e+03  -9.0000000e+00
   1.8124400e+02   6.0000000e+00   8.0000000e+00   4.0000000e+00   4.2800000e+03  -6.0000000e+00
   1.8156400e+02   1.0000000e+01   4.0000000e+00   1.0000000e+00   3.3100000e+03  -1.0000000e+01
   1.8188400e+02   7.0000000e+00   5.0000000e+00   0.0000000e+00   3.1000000e+03  -7.0000000e+00
   1.8236400e+02   7.0000000e+00   5.0000000e+00   0.0000000e+00   3.2600000e+03  -7.0000000e+00
   1.8268400e+02   8.0000000e+00   6.0000000e+00   0.0000000e+00   3.1600000e+03  -8.0000000e+00
   1.8298400e+02   1.0000000e+01   2.0000000e+00   8.0000000e+00   8.1500000e+03  -1.0000000e+01
   1.8331800e+02   9.0000000e+00   4.0000000e+00   7.0000000e+00   7.9500000e+03  -9.0000000e+00
   1.8363800e+02   8.0000000e+00   5.0000000e+00   1.0000000e+00   3.4500000e+03  -8.0000000e+00
   1.8395800e+02   7.0000000e+00   6.0000000e+00   4.0000000e+00   4.6800000e+03  -7.0000000e+00
   1.8425800e+02   7.0000000e+00   7.0000000e+00   3.0000000e+00   3.7600000e+03  -7.0000000e+00
   1.8461000e+02   5.0000000e+00   7.0000000e+00   0.0000000e+00   2.7200000e+03  -5.0000000e+00
   1.8528600e+02   7.0000000e+00   7.0000000e+00   0.0000000e+00   2.9400000e+03  -7.0000000e+00
   1.8560700e+02   7.0000000e+00   7.0000000e+00   0.0000000e+00   2.8900000e+03  -7.0000000e+00
   1.8592700e+02   6.0000000e+00   7.0000000e+00   0.0000000e+00   2.8000000e+03  -6.0000000e+00
   1.8624700e+02   8.0000000e+00   8.0000000e+00   0.0000000e+00   3.2200000e+03  -8.0000000e+00
   1.8656500e+02   7.0000000e+00   7.0000000e+00   0.0000000e+00   2.8900000e+03  -7.0000000e+00
   1.8688500e+02   8.0000000e+00   6.0000000e+00   0.0000000e+00   2.9400000e+03  -8.0000000e+00
   1.8720500e+02   8.0000000e+00   6.0000000e+00   1.0000000e+00   3.1700000e+03  -8.0000000e+00
   1.8752500e+02   8.0000000e+00   7.0000000e+00   0.0000000e+00   2.8400000e+03  -8.0000000e+00
   1.8769300e+02   8.0000000e+00   4.0000000e+00   0.0000000e+00   3.1300000e+03  -8.0000000e+00
   1.8801300e+02   7.0000000e+00   6.0000000e+00   0.0000000e+00   2.8400000e+03  -7.0000000e+00
   1.8831300e+02   5.0000000e+00   5.0000000e+00   0.0000000e+00   3.1400000e+03  -5.0000000e+00
   1.8865300e+02   5.0000000e+00   5.0000000e+00   0.0000000e+00   3.4100000e+03  -5.0000000e+00
   1.8897300e+02   8.0000000e+00   5.0000000e+00   0.0000000e+00   3.0700000e+03  -8.0000000e+00
   1.8929300e+02   7.0000000e+00   6.0000000e+00   0.0000000e+00   3.0700000e+03  -7.0000000e+00
   1.8930100e+02   9.0000000e+00   7.0000000e+00   0.0000000e+00   3.0700000e+03  -9.0000000e+00
   1.8961600e+02   8.0000000e+00   7.0000000e+00   0.0000000e+00   2.8700000e+03  -8.0000000e+00
   1.8993600e+02   1.0000000e+01   7.0000000e+00   0.0000000e+00   2.7800000e+03  -1.0000000e+01
   1.9025600e+02   7.0000000e+00   7.0000000e+00   0.0000000e+00   2.8300000e+03  -7.0000000e+00
   1.9062600e+02   7.0000000e+00   7.0000000e+00   0.0000000e+00   2.9100000e+03  -7.0000000e+00
   1.9089700e+02   8.0000000e+00   8.0000000e+00   0.0000000e+00   2.7400000e+03  -8.0000000e+00
   1.9121000e+02   8.0000000e+00   6.0000000e+00   0.0000000e+00   3.1800000e+03  -8.0000000e+00
   1.9153400e+02   8.0000000e+00   5.0000000e+00   0.0000000e+00   3.1400000e+03  -8.0000000e+00
   1.9185400e+02   8.0000000e+00   5.0000000e+00   0.0000000e+00   3.2200000e+03  -8.0000000e+00
   1.9217400e+02   6.0000000e+00   6.0000000e+00   0.0000000e+00   2.9500000e+03  -6.0000000e+00
   1.9249200e+02   7.0000000e+00   7.0000000e+00   0.0000000e+00   2.9600000e+03  -7.0000000e+00
   1.9281200e+02   8.0000000e+00   8.0000000e+00   0.0000000e+00   2.8300000e+03  -8.0000000e+00
   1.9313200e+02   8.0000000e+00   6.0000000e+00   0.0000000e+00   2.8700000e+03  -8.0000000e+00
   1.9345500e+02   9.0000000e+00   5.0000000e+00   0.0000000e+00   3.1800000e+03  -9.0000000e+00
   1.9377500e+02   8.0000000e+00   4.0000000e+00   0.0000000e+00   3.1800000e+03  -8.0000000e+00
   1.9441000e+02   7.0000000e+00   6.0000000e+00   0.0000000e+00   2.9100000e+03  -7.0000000e+00
   1.9465800e+02   8.0000000e+00   7.0000000e+00   0.0000000e+00   2.9600000e+03  -8.0000000e+00
   1.9555600e+02   8.0000000e+00   7.0000000e+00   0.0000000e+00   3.1200000e+03  -8.0000000e+00
   1.9587600e+02   8.0000000e+00   9.0000000e+00   0.0000000e+00   3.0300000e+03  -8.0000000e+00
   1.9619600e+02   6.0000000e+00   5.0000000e+00   0.0000000e+00   3.3800000e+03  -6.0000000e+00
   1.9717600e+02   7.0000000e+00   6.0000000e+00   0.0000000e+00   2.7800000e+03  -7.0000000e+00
   1.9749500e+02   2.0000000e+00   6.0000000e+00   0.0000000e+00   2.5200000e+03  -2.0000000e+00
   1.9781100e+02   7.0000000e+00   5.0000000e+00   8.0000000e+00   8.3400000e+03  -7.0000000e+00
   1.9813100e+02   8.0000000e+00   4.0000000e+00   0.0000000e+00   3.2000000e+03  -8.0000000e+00
   1.9845100e+02   7.0000000e+00   6.0000000e+00   0.0000000e+00   3.2000000e+03  -7.0000000e+00
   1.9877100e+02   7.0000000e+00   6.0000000e+00   0.0000000e+00   3.2000000e+03  -7.0000000e+00
   1.9909100e+02   6.0000000e+00   5.0000000e+00   0.0000000e+00   3.2000000e+03  -6.0000000e+00
   1.9941100e+02   4.0000000e+00   6.0000000e+00   0.0000000e+00   3.2000000e+03  -4.0000000e+00
   1.9957900e+02   4.0000000e+00   5.0000000e+00   0.0000000e+00   3.0200000e+03  -4.0000000e+00
   1.9989900e+02   6.0000000e+00   5.0000000e+00   0.0000000e+00   3.0200000e+03  -6.0000000e+00
   2.0021900e+02   3.0000000e+00   6.0000000e+00   0.0000000e+00   3.3300000e+03  -3.0000000e+00
   2.0035600e+02   3.0000000e+00   6.0000000e+00   0.0000000e+00   3.1200000e+03  -3.0000000e+00
   2.0067600e+02   4.0000000e+00   5.0000000e+00   4.0000000e+00   4.0200000e+03  -4.0000000e+00
   2.0099600e+02   3.0000000e+00   4.0000000e+00   3.0000000e+00   3.7000000e+03  -3.0000000e+00
   2.0131600e+02   1.0000000e+00   5.0000000e+00   1.0000000e+00   3.3800000e+03  -1.0000000e+00
   2.0163600e+02   2.0000000e+00   4.0000000e+00   1.0000000e+00   3.5200000e+03  -2.0000000e+00
   2.0180900e+02   4.0000000e+00   4.0000000e+00   1.0000000e+00   3.2800000e+03  -4.0000000e+00
   2.0210900e+02   1.0000000e+00   5.0000000e+00   0.0000000e+00   3.1000000e+03  -1.0000000e+00
   2.0242900e+02   4.0000000e+00   4.0000000e+00   0.0000000e+00   3.5600000e+03  -4.0000000e+00
   2.0274900e+02   8.0000000e+00   5.0000000e+00   0.0000000e+00   3.1900000e+03  -8.0000000e+00
   2.0306900e+02   8.0000000e+00   5.0000000e+00   0.0000000e+00   3.3800000e+03  -8.0000000e+00
   2.0338900e+02   7.0000000e+00   6.0000000e+00   0.0000000e+00   3.4700000e+03  -7.0000000e+00
   2.0352600e+02   7.0000000e+00   7.0000000e+00   0.0000000e+00   3.0400000e+03  -7.0000000e+00
   2.0370500e+02   8.0000000e+00   7.0000000e+00   0.0000000e+00   3.3700000e+03  -8.0000000e+00
   2.0429500e+02   8.0000000e+00   7.0000000e+00   0.0000000e+00   3.3700000e+03  -8.0000000e+00
   2.0464500e+02   9.0000000e+00   7.0000000e+00   0.0000000e+00   3.3700000e+03  -9.0000000e+00
   2.0492500e+02   7.0000000e+00   6.0000000e+00   0.0000000e+00   3.1700000e+03  -7.0000000e+00
   2.0520400e+02   7.0000000e+00   6.0000000e+00   0.0000000e+00   2.8000000e+03  -7.0000000e+00
   2.0552400e+02   7.0000000e+00   7.0000000e+00   0.0000000e+00   3.1700000e+03  -7.0000000e+00
   2.0584200e+02   5.0000000e+00   6.0000000e+00   0.0000000e+00   3.3800000e+03  -5.0000000e+00
   2.0584400e+02   5.0000000e+00   5.0000000e+00   0.0000000e+00   2.8000000e+03  -5.0000000e+00
   2.0616400e+02   7.0000000e+00   6.0000000e+00   0.0000000e+00   2.9800000e+03  -7.0000000e+00
   2.0618900e+02   7.0000000e+00   5.0000000e+00   0.0000000e+00   3.3200000e+03  -7.0000000e+00
   2.0643300e+02   7.0000000e+00   6.0000000e+00   0.0000000e+00   2.9800000e+03  -7.0000000e+00
   2.0646200e+02   7.0000000e+00   4.0000000e+00   0.0000000e+00   3.3100000e+03  -7.0000000e+00
   2.0662200e+02   8.0000000e+00   4.0000000e+00   0.0000000e+00   2.8600000e+03  -8.0000000e+00
   2.0678200e+02   8.0000000e+00   4.0000000e+00   0.0000000e+00   2.9600000e+03  -8.0000000e+00
   2.0698400e+02   8.0000000e+00   5.0000000e+00   0.0000000e+00   2.9600000e+03  -8.0000000e+00
   2.0722900e+02   8.0000000e+00   4.0000000e+00   0.0000000e+00   2.9100000e+03  -8.0000000e+00
   2.0730400e+02   9.0000000e+00   7.0000000e+00   0.0000000e+00   2.8600000e+03  -9.0000000e+00
   2.0753500e+02   8.0000000e+00   4.0000000e+00   0.0000000e+00   3.0100000e+03  -8.0000000e+00
   2.0762400e+02   9.0000000e+00   6.0000000e+00   0.0000000e+00   2.8600000e+03  -9.0000000e+00
   2.0787200e+02   9.0000000e+00   4.0000000e+00   0.0000000e+00   2.9600000e+03  -9.0000000e+00
   2.0794900e+02   8.0000000e+00   5.0000000e+00   0.0000000e+00   2.8700000e+03  -8.0000000e+00
   2.0814900e+02   9.0000000e+00   7.0000000e+00   0.0000000e+00   2.9600000e+03  -9.0000000e+00
   2.0826900e+02   9.0000000e+00   4.0000000e+00   0.0000000e+00   3.2900000e+03  -9.0000000e+00
   2.0858900e+02   8.0000000e+00   3.0000000e+00   0.0000000e+00   2.9600000e+03  -8.0000000e+00
   2.0860400e+02   9.0000000e+00   3.0000000e+00   0.0000000e+00   3.0600000e+03  -9.0000000e+00
   2.0890900e+02   8.0000000e+00   2.0000000e+00   0.0000000e+00   2.9600000e+03  -8.0000000e+00
   2.0922700e+02   9.0000000e+00   2.0000000e+00   0.0000000e+00   3.0600000e+03  -9.0000000e+00
   2.0954700e+02   9.0000000e+00   1.0000000e+00   0.0000000e+00   3.0600000e+03  -9.0000000e+00
   2.1005700e+02   9.0000000e+00   1.0000000e+00   0.0000000e+00   3.3100000e+03  -9.0000000e+00
   2.1028700e+02   9.0000000e+00   2.0000000e+00   0.0000000e+00   3.3800000e+03  -9.0000000e+00
   2.1044200e+02   1.0000000e+01   8.0000000e+00   0.0000000e+00   3.2100000e+03  -1.0000000e+01
   2.1059700e+02   7.0000000e+00   4.0000000e+00   0.0000000e+00   2.9600000e+03  -7.0000000e+00
   2.1076200e+02   9.0000000e+00   2.0000000e+00   0.0000000e+00   2.9300000e+03  -9.0000000e+00
   2.1092000e+02   8.0000000e+00   3.0000000e+00   0.0000000e+00   3.0100000e+03  -8.0000000e+00
   2.1212800e+02   8.0000000e+00   2.0000000e+00   0.0000000e+00   2.9600000e+03  -8.0000000e+00
   2.1244800e+02   9.0000000e+00   6.0000000e+00   0.0000000e+00   3.3200000e+03  -9.0000000e+00
   2.1276800e+02   7.0000000e+00   5.0000000e+00   0.0000000e+00   3.2700000e+03  -7.0000000e+00
   2.1308800e+02   7.0000000e+00   5.0000000e+00   0.0000000e+00   3.0100000e+03  -7.0000000e+00
   2.1340800e+02   8.0000000e+00   6.0000000e+00   0.0000000e+00   3.0100000e+03  -8.0000000e+00
   2.1365800e+02   9.0000000e+00   5.0000000e+00   0.0000000e+00   3.0000000e+03  -9.0000000e+00
   2.1372800e+02   9.0000000e+00   6.0000000e+00   0.0000000e+00   3.0100000e+03  -9.0000000e+00
   2.1396800e+02   9.0000000e+00   8.0000000e+00   0.0000000e+00   2.8700000e+03  -9.0000000e+00
   2.1404800e+02   7.0000000e+00   5.0000000e+00   0.0000000e+00   2.9000000e+03  -7.0000000e+00
   2.1436800e+02   8.0000000e+00   5.0000000e+00   0.0000000e+00   3.1100000e+03  -8.0000000e+00
   2.1458300e+02   9.0000000e+00   9.0000000e+00   1.0000000e+00   3.1900000e+03  -9.0000000e+00
   2.1502200e+02   7.0000000e+00   6.0000000e+00   0.0000000e+00   3.0600000e+03  -7.0000000e+00
   2.1534200e+02   8.0000000e+00   8.0000000e+00   0.0000000e+00   3.3800000e+03  -8.0000000e+00
   2.1566200e+02   9.0000000e+00   9.0000000e+00   0.0000000e+00   3.2700000e+03  -9.0000000e+00
   2.1598200e+02   7.0000000e+00   6.0000000e+00   0.0000000e+00   3.2200000e+03  -7.0000000e+00
   2.1629300e+02   8.0000000e+00   3.0000000e+00   0.0000000e+00   3.2200000e+03  -8.0000000e+00
   2.1661100e+02   9.0000000e+00   2.0000000e+00   0.0000000e+00   3.2100000e+03  -9.0000000e+00
   2.1693100e+02   9.0000000e+00   2.0000000e+00   0.0000000e+00   3.2100000e+03  -9.0000000e+00
   2.1725100e+02   1.0000000e+01   2.0000000e+00   0.0000000e+00   3.2100000e+03  -1.0000000e+01
   2.1757500e+02   7.0000000e+00   5.0000000e+00   0.0000000e+00   3.2100000e+03  -7.0000000e+00
   2.1789500e+02   7.0000000e+00   7.0000000e+00   0.0000000e+00   3.2100000e+03  -7.0000000e+00
   2.1821500e+02   7.0000000e+00   7.0000000e+00   0.0000000e+00   3.2100000e+03  -7.0000000e+00
   2.1849300e+02   6.0000000e+00   6.0000000e+00   0.0000000e+00   2.8000000e+03  -6.0000000e+00
   2.1881300e+02   7.0000000e+00   4.0000000e+00   0.0000000e+00   2.8000000e+03  -7.0000000e+00
   2.1913300e+02   5.0000000e+00   6.0000000e+00   0.0000000e+00   2.5300000e+03  -5.0000000e+00
   2.1944900e+02   5.0000000e+00   6.0000000e+00   0.0000000e+00   2.6900000e+03  -5.0000000e+00
   2.1976900e+02   6.0000000e+00   6.0000000e+00   0.0000000e+00   2.8000000e+03  -6.0000000e+00
   2.1994800e+02   5.0000000e+00   6.0000000e+00   0.0000000e+00   2.6900000e+03  -5.0000000e+00
   2.2026800e+02   4.0000000e+00   7.0000000e+00   4.0000000e+00   4.5400000e+03  -4.0000000e+00
   2.2058800e+02   5.0000000e+00   6.0000000e+00   6.0000000e+00   6.5400000e+03  -5.0000000e+00
   2.2090600e+02   4.0000000e+00   7.0000000e+00   6.0000000e+00   6.0100000e+03  -4.0000000e+00
   2.2126600e+02   3.0000000e+00   7.0000000e+00   5.0000000e+00   5.7800000e+03  -3.0000000e+00
   2.2175200e+02   2.0000000e+00   7.0000000e+00   7.0000000e+00   7.0500000e+03  -2.0000000e+00
   2.2209200e+02   1.0000000e+00   7.0000000e+00   7.0000000e+00   7.1800000e+03  -1.0000000e+00
   2.2241200e+02   1.0000000e+00   8.0000000e+00   7.0000000e+00   7.2500000e+03  -1.0000000e+00
   2.2272700e+02   2.0000000e+00   8.0000000e+00   7.0000000e+00   7.5800000e+03  -2.0000000e+00
   2.2304700e+02   2.0000000e+00   8.0000000e+00   7.0000000e+00   7.5100000e+03  -2.0000000e+00
   2.2337400e+02   3.0000000e+00   8.0000000e+00   8.0000000e+00   8.0800000e+03  -3.0000000e+00
   2.2369400e+02   2.0000000e+00   8.0000000e+00   8.0000000e+00   8.4300000e+03  -2.0000000e+00
   2.2401400e+02   3.0000000e+00   9.0000000e+00   7.0000000e+00   7.8100000e+03  -3.0000000e+00
   2.2433400e+02   4.0000000e+00   8.0000000e+00   8.0000000e+00   8.2500000e+03  -4.0000000e+00
   2.2447400e+02   3.0000000e+00   9.0000000e+00   6.0000000e+00   6.9200000e+03  -3.0000000e+00
   2.2465400e+02   3.0000000e+00   8.0000000e+00   5.0000000e+00   5.9800000e+03  -3.0000000e+00
   2.2478700e+02   4.0000000e+00   8.0000000e+00   7.0000000e+00   7.5800000e+03  -4.0000000e+00
   2.2510700e+02   6.0000000e+00   6.0000000e+00   7.0000000e+00   7.9100000e+03  -6.0000000e+00
   2.2542700e+02   6.0000000e+00   7.0000000e+00   7.0000000e+00   7.1100000e+03  -6.0000000e+00
   2.2574700e+02   5.0000000e+00   7.0000000e+00   5.0000000e+00   5.9900000e+03  -5.0000000e+00
   2.2606700e+02   6.0000000e+00   7.0000000e+00   7.0000000e+00   7.3100000e+03  -6.0000000e+00
   2.2647300e+02   7.0000000e+00   6.0000000e+00   7.0000000e+00   7.0500000e+03  -7.0000000e+00
   2.2679300e+02   6.0000000e+00   7.0000000e+00   8.0000000e+00   8.2400000e+03  -6.0000000e+00
   2.2711300e+02   2.0000000e+00   7.0000000e+00   5.0000000e+00   5.3400000e+03  -2.0000000e+00
   2.2777700e+02   0.0000000e+00   8.0000000e+00   6.0000000e+00   6.4600000e+03   0.0000000e+00
   2.2809700e+02   0.0000000e+00   9.0000000e+00   6.0000000e+00   6.1600000e+03   0.0000000e+00
   2.2841700e+02   0.0000000e+00   7.0000000e+00   4.0000000e+00   4.9400000e+03   0.0000000e+00
   2.2869800e+02   0.0000000e+00   6.0000000e+00   5.0000000e+00   5.7300000e+03   0.0000000e+00
   2.2876200e+02   4.0000000e+00   7.0000000e+00   1.0000000e+00   2.9900000e+03  -4.0000000e+00
   2.2908200e+02   7.0000000e+00   7.0000000e+00   0.0000000e+00   2.7100000e+03  -7.0000000e+00
   2.2940200e+02   8.0000000e+00   4.0000000e+00   0.0000000e+00   2.7100000e+03  -8.0000000e+00
   2.2972200e+02   7.0000000e+00   6.0000000e+00   0.0000000e+00   2.6400000e+03  -7.0000000e+00
   2.3003200e+02   7.0000000e+00   5.0000000e+00   3.0000000e+00   3.2900000e+03  -7.0000000e+00
   2.3035200e+02   6.0000000e+00   1.0000000e+01   0.0000000e+00   2.7500000e+03  -6.0000000e+00
   2.3067200e+02   6.0000000e+00   9.0000000e+00   0.0000000e+00   2.7500000e+03  -6.0000000e+00
   2.3077000e+02   6.0000000e+00   8.0000000e+00   0.0000000e+00   2.9100000e+03  -6.0000000e+00
   2.3098000e+02   6.0000000e+00   7.0000000e+00   0.0000000e+00   2.7000000e+03  -6.0000000e+00
   2.3099200e+02   6.0000000e+00   9.0000000e+00   0.0000000e+00   2.6200000e+03  -6.0000000e+00
   2.3131200e+02   6.0000000e+00   6.0000000e+00   1.0000000e+00   3.3300000e+03  -6.0000000e+00
   2.3160700e+02   7.0000000e+00   6.0000000e+00   1.0000000e+00   3.0700000e+03  -7.0000000e+00
   2.3201200e+02   6.0000000e+00   9.0000000e+00   1.0000000e+00   2.7500000e+03  -6.0000000e+00
   2.3233200e+02   8.0000000e+00   6.0000000e+00   0.0000000e+00   2.8900000e+03  -8.0000000e+00
   2.3265200e+02   9.0000000e+00   5.0000000e+00   1.0000000e+00   3.0200000e+03  -9.0000000e+00
   2.3296700e+02   1.0000000e+01   6.0000000e+00   0.0000000e+00   2.8900000e+03  -1.0000000e+01
   2.3328700e+02   8.0000000e+00   5.0000000e+00   1.0000000e+00   3.1600000e+03  -8.0000000e+00
   2.3360700e+02   1.0000000e+00   7.0000000e+00   3.0000000e+00   3.4900000e+03  -1.0000000e+00
   2.3423600e+02   5.0000000e+00   8.0000000e+00   4.0000000e+00   4.7400000e+03  -5.0000000e+00
   2.3434500e+02   0.0000000e+00   0.0000000e+00   6.0000000e+00   6.6500000e+03  -6.0000000e+00
   2.3479500e+02   1.0000000e+00   7.0000000e+00   4.0000000e+00   4.4300000e+03  -1.0000000e+00
   2.3511100e+02   1.0000000e+00   8.0000000e+00   5.0000000e+00   5.3600000e+03  -1.0000000e+00
   2.3543100e+02   1.0000000e+00   8.0000000e+00   5.0000000e+00   5.4200000e+03  -1.0000000e+00
   2.3575100e+02   1.0000000e+00   8.0000000e+00   5.0000000e+00   5.9100000e+03  -1.0000000e+00
   2.3607100e+02   1.0000000e+00   8.0000000e+00   5.0000000e+00   5.5600000e+03  -1.0000000e+00
   2.3639100e+02   1.0000000e+00   8.0000000e+00   5.0000000e+00   5.4200000e+03  -1.0000000e+00
   2.3670600e+02   1.0000000e+00   9.0000000e+00   7.0000000e+00   7.1100000e+03  -1.0000000e+00
   2.3702600e+02   1.0000000e+00   9.0000000e+00   7.0000000e+00   7.4900000e+03  -1.0000000e+00
   2.3734600e+02   2.0000000e+00   9.0000000e+00   7.0000000e+00   7.8700000e+03  -2.0000000e+00
   2.3766600e+02   2.0000000e+00   9.0000000e+00   9.0000000e+00   9.5300000e+03  -2.0000000e+00
   2.3798600e+02   3.0000000e+00   8.0000000e+00   9.0000000e+00   9.8700000e+03  -3.0000000e+00
   2.3829800e+02   6.0000000e+00   8.0000000e+00   7.0000000e+00   7.7900000e+03  -6.0000000e+00
   2.3861800e+02   7.0000000e+00   8.0000000e+00   8.0000000e+00   7.4900000e+03  -7.0000000e+00
   2.3893800e+02   6.0000000e+00   6.0000000e+00   8.0000000e+00   8.4200000e+03  -6.0000000e+00
   2.3925800e+02   7.0000000e+00   8.0000000e+00   7.0000000e+00   7.3800000e+03  -7.0000000e+00
   2.3957800e+02   7.0000000e+00   6.0000000e+00   5.0000000e+00   5.0200000e+03  -7.0000000e+00
   2.3990100e+02   7.0000000e+00   7.0000000e+00   7.0000000e+00   7.0300000e+03  -7.0000000e+00
   2.4022100e+02   1.0000000e+00   7.0000000e+00   5.0000000e+00   5.0200000e+03  -1.0000000e+00
   2.4054100e+02   1.0000000e+00   7.0000000e+00   4.0000000e+00   4.8300000e+03  -1.0000000e+00
   2.4086100e+02   1.0000000e+00   8.0000000e+00   5.0000000e+00   5.0100000e+03  -1.0000000e+00
   2.4118100e+02   1.0000000e+00   8.0000000e+00   5.0000000e+00   5.3600000e+03  -1.0000000e+00
   2.4150100e+02   1.0000000e+00   8.0000000e+00   4.0000000e+00   4.8900000e+03  -1.0000000e+00
   2.4182100e+02   1.0000000e+00   7.0000000e+00   6.0000000e+00   6.6600000e+03  -1.0000000e+00
   2.4214100e+02   1.0000000e+00   7.0000000e+00   6.0000000e+00   6.6600000e+03  -1.0000000e+00
   2.4246200e+02   5.0000000e+00   5.0000000e+00   6.0000000e+00   6.6000000e+03  -5.0000000e+00
   2.4278200e+02   5.0000000e+00   6.0000000e+00   1.0000000e+01   1.0290000e+04  -5.0000000e+00
   2.4293900e+02   7.0000000e+00   3.0000000e+00   9.0000000e+00   9.6900000e+03  -7.0000000e+00
   2.4310200e+02   5.0000000e+00   6.0000000e+00   9.0000000e+00   9.5800000e+03  -5.0000000e+00
   2.4342200e+02   5.0000000e+00   6.0000000e+00   1.1000000e+01   1.1090000e+04  -5.0000000e+00
   2.4344000e+02   7.0000000e+00   3.0000000e+00   9.0000000e+00   9.8700000e+03  -7.0000000e+00
   2.4357800e+02   7.0000000e+00   3.0000000e+00   7.0000000e+00   7.2700000e+03  -7.0000000e+00
   2.4389800e+02   9.0000000e+00   7.0000000e+00   8.0000000e+00   8.1400000e+03  -9.0000000e+00
   2.4421800e+02   1.0000000e+01   3.0000000e+00   9.0000000e+00   9.6600000e+03  -1.0000000e+01
   2.4453800e+02   8.0000000e+00   2.0000000e+00   1.0000000e+01   1.0190000e+04  -8.0000000e+00
   2.4485800e+02   1.0000000e+01   3.0000000e+00   9.0000000e+00   9.2000000e+03  -1.0000000e+01
   2.4493400e+02   1.0000000e+01   2.0000000e+00   9.0000000e+00   9.0000000e+03  -1.0000000e+01
   2.4525700e+02   5.0000000e+00   2.0000000e+00   3.0000000e+00   3.9700000e+03  -5.0000000e+00
   2.4557700e+02   7.0000000e+00   6.0000000e+00   6.0000000e+00   6.2300000e+03  -7.0000000e+00
   2.4589700e+02   9.0000000e+00   1.0000000e+00   3.0000000e+00   3.7200000e+03  -9.0000000e+00
   2.4620900e+02   9.0000000e+00   2.0000000e+00   4.0000000e+00   4.2200000e+03  -9.0000000e+00
   2.4652900e+02   8.0000000e+00   3.0000000e+00   4.0000000e+00   4.9800000e+03  -8.0000000e+00
   2.4684900e+02   7.0000000e+00   4.0000000e+00   3.0000000e+00   3.8400000e+03  -7.0000000e+00
   2.4717400e+02   8.0000000e+00   3.0000000e+00   1.0000000e+00   3.1900000e+03  -8.0000000e+00
   2.4749400e+02   8.0000000e+00   3.0000000e+00   1.0000000e+00   3.1900000e+03  -8.0000000e+00
   2.4781400e+02   8.0000000e+00   1.0000000e+00   1.0000000e+00   3.3000000e+03  -8.0000000e+00
   2.4812900e+02   8.0000000e+00   3.0000000e+00   2.0000000e+00   3.4600000e+03  -8.0000000e+00
   2.4837400e+02   8.0000000e+00   7.0000000e+00   4.0000000e+00   4.0100000e+03  -8.0000000e+00
   2.4869400e+02   8.0000000e+00   7.0000000e+00   3.0000000e+00   3.7500000e+03  -8.0000000e+00
   2.4900400e+02   5.0000000e+00   6.0000000e+00   1.0000000e+00   3.0300000e+03  -5.0000000e+00
   2.4922700e+02   6.0000000e+00   8.0000000e+00   0.0000000e+00   3.0200000e+03  -6.0000000e+00
   2.4954700e+02   7.0000000e+00   5.0000000e+00   1.0000000e+00   3.1600000e+03  -7.0000000e+00
   2.4997800e+02   7.0000000e+00   5.0000000e+00   0.0000000e+00   3.0400000e+03  -7.0000000e+00
   2.5029800e+02   8.0000000e+00   6.0000000e+00   0.0000000e+00   2.9800000e+03  -8.0000000e+00
   2.5061800e+02   8.0000000e+00   6.0000000e+00   0.0000000e+00   2.9200000e+03  -8.0000000e+00
   2.5093800e+02   7.0000000e+00   7.0000000e+00   0.0000000e+00   2.9200000e+03  -7.0000000e+00
   2.5125800e+02   7.0000000e+00   8.0000000e+00   0.0000000e+00   3.0400000e+03  -7.0000000e+00
   2.5142900e+02   7.0000000e+00   9.0000000e+00   0.0000000e+00   2.8300000e+03  -7.0000000e+00
   2.5174900e+02   7.0000000e+00   8.0000000e+00   0.0000000e+00   2.8300000e+03  -7.0000000e+00
   2.5206900e+02   2.0000000e+00   2.0000000e+00   0.0000000e+00   2.3600000e+03  -2.0000000e+00
   2.5242600e+02   4.0000000e+00   4.0000000e+00   0.0000000e+00   2.6100000e+03  -4.0000000e+00
   2.5274600e+02   5.0000000e+00   6.0000000e+00   0.0000000e+00   2.8600000e+03  -5.0000000e+00
   2.5306600e+02   5.0000000e+00   6.0000000e+00   0.0000000e+00   2.8600000e+03  -5.0000000e+00
   2.5335600e+02   5.0000000e+00   5.0000000e+00   0.0000000e+00   2.8600000e+03  -5.0000000e+00
   2.5370800e+02   6.0000000e+00   6.0000000e+00   0.0000000e+00   2.8600000e+03  -6.0000000e+00
   2.5402800e+02   7.0000000e+00   3.0000000e+00   0.0000000e+00   2.9200000e+03  -7.0000000e+00
   2.5436050e+02   7.0000000e+00   5.0000000e+00   0.0000000e+00   2.9800000e+03  -7.0000000e+00
   2.5481800e+02   8.0000000e+00   6.0000000e+00   0.0000000e+00   2.9500000e+03  -8.0000000e+00
   2.5589000e+02   8.0000000e+00   8.0000000e+00   0.0000000e+00   2.9500000e+03  -8.0000000e+00
   2.5620800e+02   9.0000000e+00   6.0000000e+00   0.0000000e+00   3.0300000e+03  -9.0000000e+00
   2.5624800e+02   8.0000000e+00   4.0000000e+00   0.0000000e+00   3.0400000e+03  -8.0000000e+00
   2.5650800e+02   9.0000000e+00   2.0000000e+00   0.0000000e+00   2.9100000e+03  -9.0000000e+00
   2.5653300e+02   8.0000000e+00   6.0000000e+00   0.0000000e+00   3.0800000e+03  -8.0000000e+00
   2.5670300e+02   5.0000000e+00   6.0000000e+00   0.0000000e+00   2.6100000e+03  -5.0000000e+00
   2.5685300e+02   8.0000000e+00   4.0000000e+00   0.0000000e+00   2.6100000e+03  -8.0000000e+00
   2.5748400e+02   7.0000000e+00   6.0000000e+00   0.0000000e+00   3.0100000e+03  -7.0000000e+00
   2.5780400e+02   8.0000000e+00   4.0000000e+00   0.0000000e+00   3.0100000e+03  -8.0000000e+00
   2.5939200e+02   8.0000000e+00   6.0000000e+00   0.0000000e+00   2.9800000e+03  -8.0000000e+00
   2.5949400e+02   6.0000000e+00   7.0000000e+00   0.0000000e+00   2.7900000e+03  -6.0000000e+00
   2.5971200e+02   8.0000000e+00   7.0000000e+00   0.0000000e+00   3.0900000e+03  -8.0000000e+00
   2.5981400e+02   7.0000000e+00   8.0000000e+00   0.0000000e+00   2.7900000e+03  -7.0000000e+00
   2.6003200e+02   8.0000000e+00   8.0000000e+00   0.0000000e+00   2.9000000e+03  -8.0000000e+00
   2.6035200e+02   8.0000000e+00   7.0000000e+00   0.0000000e+00   3.0400000e+03  -8.0000000e+00
   2.6067200e+02   8.0000000e+00   7.0000000e+00   0.0000000e+00   3.0400000e+03  -8.0000000e+00
   2.6121000e+02   7.0000000e+00   8.0000000e+00   0.0000000e+00   2.9000000e+03  -7.0000000e+00
   2.6153100e+02   7.0000000e+00   9.0000000e+00   0.0000000e+00   2.6800000e+03  -7.0000000e+00
   2.6184700e+02   6.0000000e+00   1.0000000e+01   0.0000000e+00   2.8300000e+03  -6.0000000e+00
   2.6216000e+02   5.0000000e+00   9.0000000e+00   0.0000000e+00   3.0000000e+03  -5.0000000e+00
   2.6294000e+02   1.0000000e+00   6.0000000e+00   1.0000000e+00   2.5200000e+03  -1.0000000e+00
   2.6328700e+02   1.0000000e+00   7.0000000e+00   0.0000000e+00   2.8300000e+03  -1.0000000e+00
   2.6356000e+02   1.0000000e+00   7.0000000e+00   0.0000000e+00   2.8100000e+03  -1.0000000e+00
   2.6360700e+02   1.0000000e+00   7.0000000e+00   0.0000000e+00   2.8800000e+03  -1.0000000e+00
   2.6372700e+02   2.0000000e+00   7.0000000e+00   0.0000000e+00   2.8600000e+03  -2.0000000e+00
   2.6392700e+02   2.0000000e+00   7.0000000e+00   0.0000000e+00   2.8800000e+03  -2.0000000e+00
   2.6423800e+02   2.0000000e+00   7.0000000e+00   0.0000000e+00   2.8800000e+03  -2.0000000e+00
   2.6455800e+02   4.0000000e+00   5.0000000e+00   0.0000000e+00   3.0000000e+03  -4.0000000e+00
   2.6520100e+02   5.0000000e+00   7.0000000e+00   0.0000000e+00   2.8800000e+03  -5.0000000e+00
   2.6552100e+02   6.0000000e+00   6.0000000e+00   0.0000000e+00   2.8800000e+03  -6.0000000e+00
   2.6607700e+02   7.0000000e+00   8.0000000e+00   0.0000000e+00   2.7500000e+03  -7.0000000e+00
   2.6639700e+02   8.0000000e+00   6.0000000e+00   0.0000000e+00   2.9000000e+03  -8.0000000e+00
   2.6704100e+02   8.0000000e+00   6.0000000e+00   0.0000000e+00   3.0900000e+03  -8.0000000e+00
   2.6736100e+02   8.0000000e+00   5.0000000e+00   0.0000000e+00   3.0900000e+03  -8.0000000e+00
   2.6768300e+02   8.0000000e+00   6.0000000e+00   0.0000000e+00   3.0900000e+03  -8.0000000e+00
   2.6800300e+02   8.0000000e+00   6.0000000e+00   0.0000000e+00   3.0900000e+03  -8.0000000e+00
   2.6832300e+02   9.0000000e+00   6.0000000e+00   0.0000000e+00   3.0200000e+03  -9.0000000e+00
   2.6863300e+02   7.0000000e+00   5.0000000e+00   0.0000000e+00   3.0200000e+03  -7.0000000e+00
   2.6895300e+02   7.0000000e+00   6.0000000e+00   0.0000000e+00   2.9600000e+03  -7.0000000e+00
   2.6939200e+02   7.0000000e+00   6.0000000e+00   0.0000000e+00   3.0000000e+03  -7.0000000e+00
   2.6948600e+02   7.0000000e+00   6.0000000e+00   0.0000000e+00   3.2100000e+03  -7.0000000e+00
   2.6980600e+02   7.0000000e+00   6.0000000e+00   0.0000000e+00   3.2100000e+03  -7.0000000e+00
   2.7012600e+02   4.0000000e+00   7.0000000e+00   0.0000000e+00   3.2100000e+03  -4.0000000e+00
   2.7045100e+02   5.0000000e+00   7.0000000e+00   0.0000000e+00   2.8000000e+03  -5.0000000e+00
   2.7076800e+02   6.0000000e+00   7.0000000e+00   0.0000000e+00   2.7800000e+03  -6.0000000e+00
   2.7108800e+02   6.0000000e+00   8.0000000e+00   0.0000000e+00   2.7300000e+03  -6.0000000e+00
   2.7130900e+02   5.0000000e+00   6.0000000e+00   0.0000000e+00   2.4600000e+03  -5.0000000e+00
   2.7162400e+02   8.0000000e+00   5.0000000e+00   0.0000000e+00   2.9000000e+03  -8.0000000e+00
   2.7226400e+02   8.0000000e+00   4.0000000e+00   0.0000000e+00   3.0200000e+03  -8.0000000e+00
   2.7250000e+02   8.0000000e+00   6.0000000e+00   0.0000000e+00   3.0200000e+03  -8.0000000e+00
   2.7282100e+02   9.0000000e+00   4.0000000e+00   0.0000000e+00   3.1300000e+03  -9.0000000e+00
   2.7314100e+02   8.0000000e+00   5.0000000e+00   0.0000000e+00   2.9000000e+03  -8.0000000e+00
   2.7346100e+02   9.0000000e+00   2.0000000e+00   0.0000000e+00   3.0700000e+03  -9.0000000e+00
   2.7366800e+02   7.0000000e+00   1.0000000e+00   0.0000000e+00   2.8400000e+03  -7.0000000e+00
   2.7378600e+02   8.0000000e+00   2.0000000e+00   0.0000000e+00   2.8400000e+03  -8.0000000e+00
   2.7410600e+02   7.0000000e+00   3.0000000e+00   0.0000000e+00   2.8000000e+03  -7.0000000e+00
   2.7442600e+02   8.0000000e+00   1.0000000e+00   0.0000000e+00   2.9000000e+03  -8.0000000e+00
   2.7474600e+02   9.0000000e+00   1.0000000e+00   0.0000000e+00   2.8400000e+03  -9.0000000e+00
   2.7528900e+02   8.0000000e+00   1.0000000e+00   0.0000000e+00   3.0200000e+03  -8.0000000e+00
   2.7560900e+02   8.0000000e+00   1.0000000e+00   0.0000000e+00   3.0200000e+03  -8.0000000e+00
   2.7592900e+02   1.0000000e+01   1.0000000e+00   0.0000000e+00   3.0200000e+03  -1.0000000e+01
   2.7624000e+02   9.0000000e+00   7.0000000e+00   0.0000000e+00   2.9000000e+03  -9.0000000e+00
   2.7656000e+02   7.0000000e+00   1.0000000e+01   0.0000000e+00   2.6300000e+03  -7.0000000e+00
   2.7688000e+02   6.0000000e+00   1.1000000e+01   1.0000000e+00   3.5900000e+03  -6.0000000e+00
   2.7720000e+02   5.0000000e+00   6.0000000e+00   1.0000000e+00   3.2400000e+03  -5.0000000e+00
   2.7737600e+02   5.0000000e+00   1.0000000e+01   0.0000000e+00   2.6500000e+03  -5.0000000e+00
   2.7967000e+02   5.0000000e+00   6.0000000e+00   0.0000000e+00   3.0000000e+03  -5.0000000e+00
   2.8004900e+02   7.0000000e+00   5.0000000e+00   1.0000000e+00   3.0400000e+03  -7.0000000e+00
   2.8036900e+02   7.0000000e+00   5.0000000e+00   1.0000000e+00   3.1000000e+03  -7.0000000e+00
   2.8069100e+02   5.0000000e+00   5.0000000e+00   0.0000000e+00   3.0000000e+03  -5.0000000e+00
   2.8101100e+02   7.0000000e+00   5.0000000e+00   0.0000000e+00   2.9000000e+03  -7.0000000e+00
   2.8133100e+02   8.0000000e+00   3.0000000e+00   0.0000000e+00   2.8400000e+03  -8.0000000e+00
   2.8164200e+02   9.0000000e+00   1.0000000e+00   0.0000000e+00   2.8400000e+03  -9.0000000e+00
   2.8174400e+02   7.0000000e+00   1.0000000e+00   0.0000000e+00   2.6000000e+03  -7.0000000e+00
   2.8206400e+02   8.0000000e+00   2.0000000e+00   0.0000000e+00   3.0600000e+03  -8.0000000e+00
   2.8237900e+02   7.0000000e+00   1.0000000e+00   0.0000000e+00   3.0000000e+03  -7.0000000e+00
   2.8243400e+02   5.0000000e+00   6.0000000e+00   0.0000000e+00   2.9000000e+03  -5.0000000e+00
   2.8255800e+02   7.0000000e+00   2.0000000e+00   0.0000000e+00   3.1500000e+03  -7.0000000e+00
   2.8269900e+02   5.0000000e+00   5.0000000e+00   0.0000000e+00   2.9600000e+03  -5.0000000e+00
   2.8301900e+02   5.0000000e+00   5.0000000e+00   0.0000000e+00   2.7700000e+03  -5.0000000e+00
   2.8334400e+02   6.0000000e+00   4.0000000e+00   0.0000000e+00   2.9500000e+03  -6.0000000e+00
   2.8366400e+02   7.0000000e+00   3.0000000e+00   0.0000000e+00   3.0700000e+03  -7.0000000e+00
   2.8398400e+02   7.0000000e+00   4.0000000e+00   0.0000000e+00   3.0700000e+03  -7.0000000e+00
   2.8430400e+02   8.0000000e+00   3.0000000e+00   0.0000000e+00   3.0700000e+03  -8.0000000e+00
   2.8462400e+02   8.0000000e+00   2.0000000e+00   0.0000000e+00   3.0700000e+03  -8.0000000e+00
   2.8494400e+02   7.0000000e+00   4.0000000e+00   0.0000000e+00   3.0700000e+03  -7.0000000e+00
   2.8526400e+02   9.0000000e+00   4.0000000e+00   0.0000000e+00   3.0700000e+03  -9.0000000e+00
   2.8558400e+02   7.0000000e+00   5.0000000e+00   0.0000000e+00   3.0700000e+03  -7.0000000e+00
   2.8589800e+02   6.0000000e+00   5.0000000e+00   0.0000000e+00   3.0100000e+03  -6.0000000e+00
   2.8621800e+02   1.0000000e+01   2.0000000e+00   0.0000000e+00   2.9500000e+03  -1.0000000e+01
   2.8653800e+02   8.0000000e+00   6.0000000e+00   0.0000000e+00   2.7700000e+03  -8.0000000e+00
   2.8686300e+02   9.0000000e+00   6.0000000e+00   0.0000000e+00   2.9500000e+03  -9.0000000e+00
   2.8718300e+02   8.0000000e+00   6.0000000e+00   0.0000000e+00   3.3100000e+03  -8.0000000e+00
   2.8750300e+02   7.0000000e+00   6.0000000e+00   0.0000000e+00   3.0100000e+03  -7.0000000e+00
   2.8781300e+02   8.0000000e+00   6.0000000e+00   0.0000000e+00   2.9500000e+03  -8.0000000e+00
   2.8813300e+02   9.0000000e+00   4.0000000e+00   0.0000000e+00   3.2500000e+03  -9.0000000e+00
   2.8845300e+02   9.0000000e+00   4.0000000e+00   0.0000000e+00   3.0100000e+03  -9.0000000e+00
   2.8877300e+02   1.0000000e+01   3.0000000e+00   0.0000000e+00   3.1300000e+03  -1.0000000e+01
   2.8909300e+02   9.0000000e+00   6.0000000e+00   0.0000000e+00   3.0100000e+03  -9.0000000e+00
   2.8941300e+02   9.0000000e+00   6.0000000e+00   0.0000000e+00   3.0100000e+03  -9.0000000e+00
   2.8973300e+02   8.0000000e+00   6.0000000e+00   0.0000000e+00   3.0100000e+03  -8.0000000e+00
   2.9005300e+02   1.0000000e+01   4.0000000e+00   0.0000000e+00   3.0100000e+03  -1.0000000e+01
   2.9037300e+02   1.0000000e+01   4.0000000e+00   0.0000000e+00   3.0100000e+03  -1.0000000e+01
   2.9069300e+02   1.0000000e+01   6.0000000e+00   0.0000000e+00   3.0100000e+03  -1.0000000e+01
   2.9100800e+02   1.0000000e+01   7.0000000e+00   0.0000000e+00   3.0100000e+03  -1.0000000e+01
   2.9132800e+02   1.0000000e+01   6.0000000e+00   0.0000000e+00   3.0100000e+03  -1.0000000e+01
   2.9164800e+02   1.0000000e+01   7.0000000e+00   0.0000000e+00   3.0100000e+03  -1.0000000e+01
   2.9197300e+02   8.0000000e+00   1.0000000e+01   0.0000000e+00   3.0100000e+03  -8.0000000e+00
   2.9229300e+02   7.0000000e+00   9.0000000e+00   0.0000000e+00   3.0100000e+03  -7.0000000e+00
